# x_m,y_m,w_tr_right_m,w_tr_left_m,psi,kappa,s,velocity,acceleration,time
-0.0120539776585900,0.3494227894894033,-0.0115525349199309,0.3484193194337250,-0.0003286669962499,0.0000000000000000,0.0000000000000000,8.0000000000000000,0.0000000000000000,0.0000000000000000
0.0879148112603630,0.3493899330466474,0.0884389615208590,0.3483410534718194,-0.0003286669962499,-0.0001029017096783,0.0999687943183672,8.0000000000000000,0.0000000000000000,0.0124960992897959
0.1878836001793160,0.3493570766038916,0.1884304579616490,0.3482627875099137,-0.0003080930765502,-0.0002058221960764,0.1999375886367344,8.0000000000000000,0.0000000000000000,0.0249921985795918
0.2878523903655943,0.3493283336608339,0.2884201624369573,0.3481922316143440,-0.0002875154026785,-0.0001976799776275,0.2999063829550862,8.0000000000000000,0.0000000000000000,0.0374882978693858
0.3878211805521040,0.3492995914683762,0.3884098665852815,0.3481216771256485,-0.0002685694185016,-0.0001895347871744,0.3998751772734535,8.0000000000000000,0.0000000000000000,0.0499843971591817
0.4877899717557307,0.3492746365395722,0.4883972145002776,0.3480596311771590,-0.0002496202743680,-0.0001868597840547,0.4998439715917945,8.0000000000000000,0.0000000000000000,0.0624804964489743
0.5877587629597285,0.3492496829931625,0.5883845615552216,0.3479975883343834,-0.0002312091238645,-0.0001841848028821,0.5998127659101616,8.0000000000000000,0.0000000000000000,0.0749765957387702
0.6877275550144692,0.3492284091452957,0.6883694273221820,0.3479441968270554,-0.0002127948090163,-0.0001750117429315,0.6997815602284918,8.0000000000000000,0.0000000000000000,0.0874726950285615
0.7876963470696760,0.3492071373124945,0.7883542917303468,0.3478908100573460,-0.0001962176979997,-0.0001658329607422,0.7997503545468592,8.0000000000000000,0.0000000000000000,0.0999687943183574
0.8876651397747886,0.3491891778521669,0.8883360325275622,0.3478469913604292,-0.0001796385667290,-0.0001723466092849,0.8997191488651863,8.0000000000000000,0.0000000000000000,0.1124648936081483
0.9876339324803759,0.3491712208108297,0.9883177710436378,0.3478031796509739,-0.0001617591325296,-0.0001788712332625,0.9996879431835536,8.0000000000000000,0.0000000000000000,0.1249609928979442
1.0876027257637655,0.3491568361214152,1.0882969894442998,0.3477679818893054,-0.0001438754836740,-0.0001833338306787,1.0996567375018627,8.0000000000000000,0.0000000000000000,0.1374570921877328
1.1875715190476825,0.3491424546936592,1.1882762055440250,0.3477327919924152,-0.0001251038085082,-0.0001877965517712,1.1996255318202298,8.0000000000000000,0.0000000000000000,0.1499531914775287
1.2875403128006495,0.3491318231676824,1.2882533470343902,0.3477055045972175,-0.0001063278939586,-0.0001786469334557,1.2995943261385199,8.0000000000000000,0.0000000000000000,0.1624492907673150
1.3875091065541305,0.3491211957509764,1.3882304862513273,0.3476782258618516,-0.0000893855714157,-0.0001694815393705,1.3995631204568870,8.0000000000000000,0.0000000000000000,0.1749453900571109
1.4874779006099563,0.3491139516321010,1.4882049128112704,0.3476597617309884,-0.0000724421636584,-0.0001680753824522,1.4995319147751811,8.0000000000000000,0.0000000000000000,0.1874414893468976
1.5874466946661687,0.3491067118394716,1.5881793359025203,0.3476413088714196,-0.0000557809847390,-0.0001666772176490,1.5995007090935482,8.0000000000000000,0.0000000000000000,0.1999375886366935
1.6874154889078763,0.3491027989165278,1.6881510183519925,0.3476316644688016,-0.0000391171226810,-0.0001682126000812,1.6994695034118346,8.0000000000000000,0.0000000000000000,0.2124336879264793
1.7873842831498552,0.3490988908562903,1.7881226967956168,0.3476220329410304,-0.0000221489631005,-0.0001697522961921,1.7994382977302019,8.0000000000000000,0.0000000000000000,0.2249297872162752
1.8873530774667737,0.3490983705062558,1.8880918440465280,0.3476208508518169,-0.0000051772579148,-0.0001633121991971,1.8994070920484747,8.0000000000000000,0.0000000000000000,0.2374258865060593
1.9873218717838157,0.3490978557278271,1.9880609871345074,0.3476196826589933,0.0000105032842019,-0.0001568580801528,1.9993758863668420,8.0000000000000000,0.0000000000000000,0.2499219857958553
2.0872906660678971,0.3491004705075715,2.0880271773132799,0.3476275518609704,0.0000261845683891,-0.0001516596593009,2.0993446806851197,8.0000000000000000,0.0000000000000000,0.2624180850856400
2.1872594603519184,0.3491030910072897,2.1879933620949452,0.3476354375808256,0.0000408257507760,-0.0001464614037774,2.1993134750034868,8.0000000000000000,0.0000000000000000,0.2749141843754359
2.2872282545165774,0.3491086331097328,2.2879562664547999,0.3476528042844961,0.0000554677082887,-0.0001485101709775,2.2992822693217683,8.0000000000000000,0.0000000000000000,0.2874102836652210
2.3871970486809961,0.3491141810871264,2.3879191642181672,0.3476701900531511,0.0000705185162493,-0.0001505729377914,2.3992510636401354,8.0000000000000000,0.0000000000000000,0.2999063829550169
2.4871658426335248,0.3491227324118127,2.4878790321394670,0.3476966348952871,0.0000855728983846,-0.0001503084272418,2.4992198579584040,8.0000000000000000,0.0000000000000000,0.3124024822448005
2.5871346365855881,0.3491312903260612,2.5878388934130725,0.3477230996136889,0.0001005708207438,-0.0001500391383899,2.5991886522767711,8.0000000000000000,0.0000000000000000,0.3248985815345964
2.6871034302366312,0.3491428402991633,2.6877957924416624,0.3477584752629853,0.0001155713619154,-0.0001560035066631,2.6991574465950317,8.0000000000000000,0.0000000000000000,0.3373946808243790
2.7870722238869585,0.3491543973854266,2.7877526844279692,0.3477938720966539,0.0001317617856849,-0.0001619837388965,2.7991262409133988,8.0000000000000000,0.0000000000000000,0.3498907801141748
2.8870410171115668,0.3491691844327879,2.8877071684498214,0.3478373043510930,0.0001479580000687,-0.0001489242158537,2.8990950352316323,8.0000000000000000,0.0000000000000000,0.3623868794039540
2.9870098103350857,0.3491839797510719,2.9876616463056282,0.3478807571817379,0.0001615373342922,-0.0001358146339202,2.9990638295499998,8.0000000000000000,0.0000000000000000,0.3748829786937500
3.0869786031212625,0.3492014818177376,3.0876127775787996,0.3479336100217332,0.0001751124504763,-0.0001256698206470,3.0990326238682666,8.0000000000000000,0.0000000000000000,0.3873790779835333
3.1869473959062389,0.3492189913119815,3.1875638996686262,0.3479864886562590,0.0001866634551968,-0.0001155288895196,3.1990014181866333,8.0000000000000000,0.0000000000000000,0.3998751772733292
3.2869161882614288,0.3492388028586371,3.2875109533055626,0.3480498001560008,0.0001982110180647,-0.0001233633726236,3.2989702125049227,8.0000000000000000,0.0000000000000000,0.4123712765631153
3.3868849806153607,0.3492586211447151,3.3874579950318133,0.3481131421986989,0.0002113284304452,-0.0001312500675985,3.3989390068232899,8.0000000000000000,0.0000000000000000,0.4248673758529112
3.4868537724163673,0.3492810553551126,3.4874016718628273,0.3481858155968179,0.0002244528400888,-0.0001313779984614,3.4989078011415509,8.0000000000000000,0.0000000000000000,0.4373634751426939
3.5868225642156535,0.3493034977039483,3.5873453382252687,0.3482585180258456,0.0002375958306575,-0.0001314832535023,3.5988765954599184,8.0000000000000000,0.0000000000000000,0.4498595744324898
3.6867913553924110,0.3493285596921133,3.6872857439825943,0.3483403505534106,0.0002507412847401,-0.0001337529486668,3.6988453897781728,8.0000000000000000,0.0000000000000000,0.4623556737222716
3.7867601465671172,0.3493536303112655,3.7872261389971280,0.3484222131621257,0.0002643380726870,-0.0001360302111669,3.7988141840965399,8.0000000000000000,0.0000000000000000,0.4748517730120675
3.8867289370253717,0.3493814108083309,3.8871635331669134,0.3485127712462502,0.0002779388371426,-0.0001268991818817,3.8987829784147792,8.0000000000000000,0.0000000000000000,0.4873478723018474
3.9866977274811348,0.3494092007314368,3.9871009168985596,0.3486033595767206,0.0002897099891124,-0.0001177272077282,3.9987517727331467,8.0000000000000000,0.0000000000000000,0.4998439715916433
4.0866665172576964,0.3494393347241437,4.0870346713383130,0.3487035407403609,0.0003014769311727,-0.0001099449377812,4.0987205670514131,8.0000000000000000,0.0000000000000000,0.5123400708814266
4.1866353070317706,0.3494694773011720,4.1869684124870750,0.3488037570343421,0.0003116921148552,-0.0001021646530751,4.1986893613697802,8.0000000000000000,0.0000000000000000,0.5248361701712225
4.2866040961718417,0.3495016536929726,4.2868979120091861,0.3489143958906757,0.0003219034855524,0.0000085829750346,4.2986581556880683,8.0000000000000000,0.0000000000000000,0.5373322694610085
4.3865728853094739,0.3495338379067355,4.3868273952181873,0.3490250748317267,0.0003099760555234,0.0001197483947157,4.3986269500064354,8.0000000000000000,0.0000000000000000,0.5498283687508044
4.4865416751886276,0.3495636295570521,4.4867483195321745,0.3491500170503563,0.0002979612802698,0.0010256380422279,4.4985957443246862,8.0000000000000000,0.0000000000000000,0.5623244680405858
4.5865104650707700,0.3495934115657383,4.5866692093552466,0.3492750167476082,0.0001049124585464,0.0019349172101384,4.5985645386430534,8.0000000000000000,0.0000000000000000,0.5748205673303817
4.6864792589699000,0.3495846055005994,4.6865571394416055,0.3494269343146930,-0.0000889014008763,0.0039964630952559,4.6985333329300385,8.0000000000000000,0.0000000000000000,0.5873166666162548
4.7864480528859570,0.3495756368340469,4.7864449306430910,0.3495789653075919,-0.0006941307356694,0.0060634097065561,4.7985021272484056,8.0000000000000000,0.0000000000000000,0.5998127659060507
4.8864167625982367,0.3494458227118286,4.8863100763771232,0.3496558185770875,-0.0013012049145740,0.0076929738733788,4.8984709212455542,8.0000000000000000,0.0000000000000000,0.6123088651556943
4.9863854719402028,0.3493154771349378,4.9861751225208186,0.3497323412296628,-0.0022322453788870,0.0093212906090021,4.9984397155639213,8.0000000000000000,-4.1564747986017645,0.6248049644454902
5.0863537661469334,0.3489995135182807,5.0861968689697115,0.3493077091695800,-0.0031648812745606,0.0127526012248533,5.0984085090927547,7.9478905665655439,-7.5013855152162456,0.6373418944064237
5.1863220584516574,0.3486826994634531,5.1862193333656368,0.3488807809905557,-0.0047819697065614,0.0161930948503183,5.1983773034111227,7.8529711273348441,-7.1106743373598462,0.6499954820720836
5.2862888062606395,0.3480434229254498,5.2864816799654122,0.3476396252404195,-0.0064024895713706,0.0230603175519367,5.2983460952513601,7.7619240193011558,-6.7361764985519370,0.6627997680953265
5.3862555467103155,0.3474026098987720,5.3867451695703696,0.3463945898096791,-0.0093925939339465,0.0299457393688622,5.3983148895697273,7.6746758625789724,-6.3196342903996658,0.6757519460468601
5.4862166776701944,0.3461655263897055,5.4870654760741839,0.3444171942433583,-0.0123897682272578,0.0378291943288318,5.4982836750899411,7.5919113051830358,-5.9189247827031997,0.6888483616925669
5.5861777808787147,0.3449254930015894,5.5873860636634864,0.3424361755330372,-0.0169560714952965,0.0457202121167857,5.5982524694083091,7.5135678420701106,-5.5828293274027665,0.7020844587860572
5.6861234331867792,0.3427755682641120,5.6875001849271456,0.3399265513645703,-0.0215309562189490,0.0527159970831295,5.6982212424910141,7.4389168916589536,-5.2585921536685873,0.7154559853066227
5.7860690062794262,0.3406209785931351,5.7876132476559805,0.3374142170820756,-0.0274959797152194,0.0597097265690855,5.7981900368093813,7.3679097637104896,-5.0300390002232716,0.7289590534042174
5.8859818819566510,0.3372788791223816,5.8873253421026579,0.3344709367236432,-0.0334691727327419,0.0651264057336688,5.8981587937035478,7.2993424905410054,-4.8096038495081173,0.7425906123576252
5.9858945842707207,0.3339304834217297,5.9870353105976273,0.3315253714699044,-0.0405171937968831,0.0705367391309211,5.9981275880219149,7.2331722085298615,-4.6812189780627529,0.7563485608460254
6.0857504085894227,0.3291803869182056,6.0862715267942207,0.3280584355186769,-0.0475721144651780,0.0743201783783872,6.0980963284719190,7.1681817128357999,-4.5583740820016532,0.7702318027961716
6.1856059216309776,0.3244226193034539,6.1855051502787548,0.3245886462533877,-0.0553765870454035,0.0780961671772662,6.1980651227902870,7.1043253547521301,-4.4637154078008692,0.7842403850088078
6.2853754266659365,0.3181145210109315,6.2843173592501849,0.3203128468521913,-0.0631864685007670,0.0814112152122918,6.2980338490950114,7.0412339016939871,-4.3735200136255123,0.7983746761304781
6.3851444465844951,0.3117976782902243,6.3831271912906802,0.3160325012610429,-0.0716537435658620,0.0847247435931062,6.3980026434133777,6.9788640775548814,-4.2850598010060050,0.8126354601087826
6.4847928120099496,0.3038010140128668,6.4816006300010036,0.3106032813781555,-0.0801261224550960,0.0880905746854414,6.4979713553763201,6.9172104200323732,-4.2007662638336978,0.8270235107745012
6.5844404769986271,0.2957945978500365,6.5800721158436444,0.3051673919234488,-0.0892663533953566,0.0914576681912247,6.5979401496946881,6.8562313932500105,-4.1135372117200610,0.8415396782907372
6.6839260020453271,0.2859777536879013,6.6782805823182834,0.2982433890252865,-0.0984119390776286,0.0949749744082678,6.6979088454105034,6.7959884504109285,-4.0303733972694529,0.8561847245704793
6.7834105596155885,0.2761501068425281,6.7764874793767857,0.2913105066698036,-0.1082554113946064,0.0984941045929321,6.7978776397288705,6.7364408911355431,-3.9492351482213914,0.8709594249284482
6.8826835362672512,0.2643767265548144,6.8744830534175154,0.2825652356159907,-0.1181046012875142,0.1020578863369334,6.8978463167066151,6.6775771245324931,-3.8720439322807381,0.8858645304473134
6.9819552170915173,0.2525914296220546,6.9724773332103620,0.2738088645870562,-0.1286606071146390,0.1056228293518002,6.9978151110249840,6.6193556428978733,-3.7910733820429012,0.9009008995208239
7.0809575085345200,0.2387249779424493,7.0702959916983739,0.2629182535188254,-0.1392225604891788,0.1093626833022110,7.0977837670785098,6.5618512711854171,-3.7139469954842221,0.9160692610684625
7.1799581089090605,0.2248454619945334,7.1681135477388862,0.2520142449439674,-0.1505263031799118,0.1131044587318363,7.1977525613968769,6.5050237892382770,-3.6327389349654773,0.9313703631079466
7.2786216186379651,0.2087445535688661,7.2657634908839732,0.2386712423298749,-0.1618363748845846,0.1170323728554148,7.2977211934979387,6.4489545365383361,-3.5552826962293991,0.9468047925298544
7.3772829626575369,0.1926293733427654,7.3634123571649681,0.2253125698886201,-0.1739254546163824,0.1209622666172587,7.3976899878163058,6.3936046143886918,-3.4740045250060136,0.9623731528766550
7.4755283555695815,0.1741479039966427,7.4608718168737731,0.2092288015367481,-0.1860212558586467,0.1250757977356090,7.4976585925761690,6.3390533358336532,-3.3963606603876104,0.9780758608502272
7.5737710174437183,0.1556508981483432,7.5583300329832239,0.1931271408410415,-0.1989327843032749,0.1291912201179422,7.5976273868945361,6.2852634816660791,-3.3174040994074754,0.9939133585562085
7.6715064297714575,0.1346388797737739,7.6555468900349730,0.1740326493822218,-0.2118514083874978,0.1334301531578823,7.6975959606517241,6.2322760466122782,-3.2419388757706744,1.0098859182643445
7.7692384439072990,0.1136100126996849,7.7527621301618765,0.1549181081997071,-0.2256104579475802,0.1376705210308534,7.7975647549700913,6.1800549576721320,-3.1625284506516493,1.0259938989947746
7.8663586815043987,0.0899168008866630,7.8496570113678663,0.1325542386145407,-0.2393768852714155,0.1421022833824985,7.8975332942058616,6.1286844086509689,-3.0864305838524260,1.0422374047284788
7.9634747439488232,0.0662054058885010,7.9465497062405772,0.1101681935431985,-0.2540220095790315,0.1465357416787315,7.9975020885242296,6.0781312171103501,-3.0153992513672625,1.0586165813103539
8.0598594045924479,0.0396780937271624,8.0430122136010738,0.0842967851426038,-0.2686748450610223,0.1509213439772704,8.0974705890526053,6.0283322079248585,-2.9475524719375668,1.0751314786868493
8.1562389895607694,0.0131312400755137,8.1394717356091597,0.0584011895270527,-0.2841968148284817,0.1553068633432393,8.1974393833709716,5.9792526853683610,-2.8600265793250643,1.0917824197722967
8.2517537889168864,-0.0163749624092560,8.2353715110883954,0.0287749582140665,-0.2997264728063787,0.1603192578903626,8.2974078428024924,5.9312425151352652,-2.7752727540542970,1.1085690365751470
8.3472624968220916,-0.0459020102086287,8.3312673437771245,-0.0008775512699522,-0.3162506069743010,0.1653362459700905,8.3973766371208605,5.8842804514310210,-2.7653908669198279,1.1254906395547606
8.4417501404927293,-0.0785481149477252,8.4264236360838662,-0.0344356672170854,-0.3327833395676494,0.1683092826533011,8.4973450469364895,5.8371099849261006,-2.7591107958184975,1.1425480714965461
8.5362304965298463,-0.1112164813067581,8.5215746500750083,-0.0680216586177235,-0.3499018943778007,0.1712665403995237,8.5973138412548593,5.7896634631752510,-2.5372371887719147,1.1597443804750605
8.6295452450424808,-0.1470778014019754,8.6158835204730302,-0.1058985243046028,-0.3670258873413226,0.1806190886960873,8.6972822190997956,5.7456867339672888,-2.3149154847978077,1.1770769063431867
8.7228515928436217,-0.1829621336025378,8.7101863214135253,-0.1438063149779542,-0.3860143642104090,0.1900175054717219,8.7972510134181618,5.7052675156349490,-2.2167168604046443,1.1945372493223474
8.8147373854385282,-0.2223405239144445,8.8031523270432341,-0.1856962774329269,-0.4050174309777006,0.1956989959243387,8.8972192909083283,5.6662928526968370,-2.1204669653968584,1.2121194059045812
8.9066128598784751,-0.2617442931999130,8.8961086229051656,-0.2276151642586869,-0.4251418484113914,0.2013556299447271,8.9971880852266946,5.6287577351204199,-2.1000367746930158,1.2298207510275845
8.9968396629931142,-0.3047880706574176,8.9874754561346855,-0.2736366875642923,-0.4452758721973313,0.2047134016399452,9.0971562940637991,5.5913361382554827,-2.0823659338805895,1.2476402470077954
9.0870543797397083,-0.3478585329233326,9.0788306370535992,-0.3196882871948035,-0.4660716324410443,0.2080493140624879,9.1971250883821654,5.5539802473075444,-2.0714266872822380,1.2655794047418656
9.1754133725996763,-0.3946166666908606,9.1684531323581488,-0.3701933694789735,-0.4868726201459994,0.2025985553430498,9.2970932567791600,5.5165698693744334,-2.3234542488645396,1.2836396036196711
9.2637587387953122,-0.4414018791968093,9.2580629044739577,-0.4207311538874478,-0.5065785722468537,0.1970789888969859,9.3970620510975262,5.4743033605988725,-1.6268008016970330,1.3018308414270074
9.3502068188965684,-0.4916052408482879,9.3461172789301177,-0.4768757970484007,-0.5262760077914841,0.2318678735029987,9.4970302864240654,5.4445147141978785,-0.6195246803102404,1.3201420239454322
9.4366410247177566,-0.5418335983918925,9.4341602792330548,-0.5330614414736567,-0.5529375461451238,0.2669639521360767,9.5969990807424317,5.4331274789420352,-0.3154113005483706,1.3385226238113501
9.5202900888425557,-0.5965728590696334,9.5188132938931673,-0.5918948424722703,-0.5796518599066971,0.2778598879312086,9.6969668384871195,5.4273209119664854,0.0000000000000000,1.3569321321753642
9.6039186152561129,-0.6513453832707785,9.6034413107061933,-0.6507477681004595,-0.6084918940947164,0.2885678357390786,9.7969356328054875,5.4273209119664854,0.0000000000000000,1.3753516794879159
9.6842727987017927,-0.7108157475130671,9.6840513842956693,-0.7112849052505352,-0.6373470695715366,0.2703223120484232,9.8969032226550606,5.4273209119664854,0.5374367208090760,1.3937710048735144
9.7646029353864066,-0.7703206126729809,9.7646319501269065,-0.7718344112429882,-0.6625391597255961,0.2518591511537133,9.9968720169734286,5.4372112413876401,1.0542208988853283,1.4121737842858804
9.8418602649110980,-0.8337625810796516,9.8419095471409310,-0.8354037557853656,-0.6877029522734919,0.2381744515591528,10.0968399034200260,5.4565595894932661,1.4085837440758167,1.4305270043046485
9.9190952327314914,-0.8972332009226219,9.9191631074978677,-0.8989950765641855,-0.7101589690133490,0.2245347396749770,10.1968086977383940,5.4823052989480932,1.7514576484933888,1.4488047315346464
