# x_m,y_m,w_tr_right_m,w_tr_left_m,psi,kappa,s,velocity,acceleration,time
-0.0002264616181989,0.0783913211717914,0.9783919276132350,1.0216080723867651,0.0006947587303270,-0.0009517644722527,0.0000000000000000,8.0000000000000000,0.0000000000000000,0.0000000000000000
0.0997314968713963,0.0784607678472914,0.9784617006988862,1.0215382993011142,0.0007898951868970,-0.0014229558582592,0.0999579826139382,8.0000000000000000,0.0000000000000000,0.0124947478267423
0.1996894403380593,0.0785492338133732,0.9785503087589148,1.0214496912410855,0.0009792303242080,-0.0018911087221971,0.1999159652281934,8.0000000000000000,0.0000000000000000,0.0249894956535242
0.2996473653639187,0.0786565315905818,0.9786577940482376,1.0213422059517625,0.0011679580124468,-0.0018900849539993,0.2998739478423315,8.0000000000000000,0.0000000000000000,0.0374842434802914
0.3996052683178286,0.0787827272126486,0.9787841682031745,1.0212158317968258,0.0013570884821501,-0.0018930676428376,0.3998319304564193,8.0000000000000000,0.0000000000000000,0.0499789913070524
0.4995631456060916,0.0789278351599008,0.9789294567997833,1.0210705432002167,0.0015464124575071,-0.0018951878406170,0.4997899130705747,8.0000000000000000,0.0000000000000000,0.0624737391338218
0.5995209936105974,0.0790918796271277,0.9790936820567501,1.0209063179432498,0.0017359667885959,-0.0018976280323871,0.5997478956846668,8.0000000000000000,0.0000000000000000,0.0749684869605833
0.6994788087040574,0.0792748824601774,0.9792768660562132,1.0207231339437868,0.0019257785972460,-0.0018993651891077,0.6997058782988395,8.0000000000000000,0.0000000000000000,0.0874632347873549
0.7994365872308187,0.0794768732745095,0.9794790363928269,1.0205209636071733,0.0021156802136975,-0.0018148627928142,0.7996638609130066,8.0000000000000000,0.0000000000000000,0.0999579826141258
0.8993943256085423,0.0796978403947713,0.9797001989125942,1.0202998010874060,0.0022885986442263,0.0006965071320824,0.8996218435259908,8.0000000000000000,0.0000000000000000,0.1124527304407489
0.9993520283099460,0.0799344002807173,0.9799368770674208,1.0200631229325792,0.0019764373180939,0.0030386539494590,0.9995798261483000,8.0000000000000000,0.0000000000000000,0.1249474782685375
1.0993098851545975,0.0800929614816136,0.9800957499663134,1.0199042500336868,0.0016811232069258,0.0005239410134768,1.0995378087541443,8.0000000000000000,0.0000000000000000,0.1374422260942680
1.1992677101330935,0.0802704834894687,0.9802733298198161,1.0197266701801839,0.0018716931446658,-0.0019101335021895,1.1994957913693158,8.0000000000000000,0.0000000000000000,0.1499369739211645
1.2992254992918149,0.0804671426030542,0.9804700209253195,1.0195299790746801,0.0020629893897330,-0.0019139956392671,1.2994537739835441,8.0000000000000000,0.0000000000000000,0.1624317217479430
1.3991832490347631,0.0806829077101480,0.9806858282361586,1.0193141717638410,0.0022543314303325,-0.0019156947394330,1.3994117565975170,8.0000000000000000,0.0000000000000000,0.1749264695746896
1.4991409556158994,0.0809178190631026,0.9809207791403600,1.0190792208596400,0.0024459673526493,-0.0019181110974907,1.4993697392117349,8.0000000000000000,0.0000000000000000,0.1874212174014669
1.5990986153204783,0.0811718951445404,0.9811748955007131,1.0188251044992871,0.0026377924618024,-0.0019206647083293,1.5993277218257891,8.0000000000000000,0.0000000000000000,0.1999159652282236
1.6990562244215299,0.0814451552752173,0.9814481993926090,1.0185518006073910,0.0028299388916948,-0.0019216826069782,1.6992857044399738,8.0000000000000000,0.0000000000000000,0.2124107130549967
1.7990137791058729,0.0817376443518547,0.9817407186266442,1.0182592813733555,0.0030219674950394,-0.0017527289378246,1.7992436870543371,8.0000000000000000,0.0000000000000000,0.2249054608817921
1.8989712758848472,0.0820492939015656,0.9820524581275653,1.0179475418724351,0.0031803373890793,0.0007455615091119,1.8992016696658349,8.0000000000000000,0.0000000000000000,0.2374002087082294
1.9989287329270180,0.0823734434977362,0.9823764751294929,1.0176235248705070,0.0028729178462990,0.0029148403057874,1.9991596522950283,8.0000000000000000,0.0000000000000000,0.2498949565368785
2.0988864024151197,0.0826236352164591,0.9826279250482549,1.0173720749517450,0.0025976142758599,0.0004173368706485,2.0991176348946623,8.0000000000000000,0.0000000000000000,0.2623897043618328
2.1988440227709316,0.0828927474766164,0.9828979899807847,1.0171020100192154,0.0027894855429833,-0.0019294099668580,2.1990756175103852,8.0000000000000000,0.0000000000000000,0.2748844521887981
2.2988015889047793,0.0831812971854275,0.9831873981002269,1.0168126018997732,0.0029833341317089,-0.0019378654280752,2.2990336001247664,8.0000000000000000,0.0000000000000000,0.2873792000155958
2.3987590974123920,0.0834891627116598,0.9834961505816391,1.0165038494183607,0.0031768957805194,-0.0019383589042056,2.3989915827386215,8.0000000000000000,0.0000000000000000,0.2998739478423277
2.4987165443517716,0.0838164083005062,0.9838242758966840,1.0161757241033158,0.0033708430230017,-0.0019410713386876,2.4989495653528895,8.0000000000000000,0.0000000000000000,0.3123686956691112
2.5986739259203357,0.0841630467688868,0.9841717957069172,1.0158282042930826,0.0035649469307701,-0.0019436556131491,2.5989075479669421,8.0000000000000000,0.0000000000000000,0.3248634434958678
2.6986312382881836,0.0845290965942219,0.9845387321900224,1.0154612678099777,0.0037594108109755,-0.0019442881723468,2.6988655305810294,8.0000000000000000,0.0000000000000000,0.3373581913226287
2.7985884774802527,0.0849146112359585,0.9849251128458346,1.0150748871541653,0.0039536411774281,-0.0016759413177171,2.7988235131959236,8.0000000000000000,0.0000000000000000,0.3498529391494904
2.8985456401051963,0.0853194905235001,0.9853309438241825,1.0146690561758174,0.0040944582371656,0.0009638534325309,2.8987814958049523,8.0000000000000000,0.0000000000000000,0.3623476869756190
2.9985027667819732,0.0857331565187137,0.9857446164081981,1.0142553835918018,0.0037609514881072,0.0030842558512911,2.9987394784428227,8.0000000000000000,0.0000000000000000,0.3748424348053528
3.0984601772140832,0.0860713629443547,0.9860799068155388,1.0139200931844614,0.0034778662516386,0.0004499832250305,3.0986974610349081,8.0000000000000000,0.0000000000000000,0.3873371826293635
3.1984175220544619,0.0864284361025465,0.9864336413361899,1.0135663586638102,0.0036709926573475,-0.0019485373637325,3.1986554436514991,8.0000000000000000,0.0000000000000000,0.3998319304564374
3.2983747944193911,0.0868052513328872,0.9868069496265232,1.0131930503734767,0.0038674099794980,-0.0019618113730051,3.2986134262659679,8.0000000000000000,0.0000000000000000,0.4123266782832460
3.3983319912735674,0.0872015911705117,0.9871998310386124,1.0128001689613875,0.0040631900715775,-0.0019610155612067,3.3985714088797212,8.0000000000000000,0.0000000000000000,0.4248214261099652
3.4982891084298124,0.0876175456589402,0.9876123146649037,1.0123876853350964,0.0042594482982439,-0.0019641053125200,3.4985293914940363,8.0000000000000000,0.0000000000000000,0.4373161739367545
3.5982461420142005,0.0880531203094210,0.9880444219578052,1.0119555780421949,0.0044558460809401,-0.0019664762397980,3.5984873741080659,8.0000000000000000,0.0000000000000000,0.4498109217635082
3.6982030880740964,0.0885083374770990,0.9884961756574818,1.0115038243425183,0.0046525782938214,-0.0019676289385331,3.6984453567222157,8.0000000000000000,0.0000000000000000,0.4623056695902770
3.7981599425384709,0.0889832416296709,0.9889676011684436,1.0110323988315566,0.0048492065193988,-0.0016927401131069,3.7984033393367436,8.0000000000000000,0.0000000000000000,0.4748004174170929
3.8981167018489673,0.0894777674749966,0.9894587122238913,1.0105412877761086,0.0049909840674092,0.0003383866146050,3.8983613219477795,8.0000000000000000,0.0000000000000000,0.4872951652434724
3.9980734176479391,0.0899810148836344,0.9899609700462702,1.0100390299537298,0.0047815576327157,0.0018366046376109,3.9983193045768357,8.0000000000000000,0.0000000000000000,0.4997899130721045
4.0980303753140150,0.0904336735113022,0.9904310440860874,1.0095689559139125,0.0046238174785349,-0.0001876430794599,4.0982772871779813,8.0000000000000000,0.0000000000000000,0.5122846608972477
4.1979872448885169,0.0909053865198319,0.9909200895765381,1.0090799104234618,0.0048190704800619,-0.0019708210106510,4.1982352697921597,8.0000000000000000,-3.6768864440389759,0.5247794087240200
4.2979440181811537,0.0913970789040789,0.9914289347559939,1.0085710652440063,0.0050178160631733,-0.0019849046394701,4.2981932524072377,7.9539255526751234,-8.3744238013763539,0.5373102409991296
4.3979006923568171,0.0919085238469539,0.9919575834239009,1.0080424165760991,0.0052158846069486,-0.0019839635612742,4.3981512350208805,7.8479774897755510,-8.3778049497101748,0.5499616263854483
4.4978572630281404,0.0924398127766342,0.9925060635663078,1.0074939364336923,0.0054144420535023,-0.0019870436325738,4.4981092176350668,7.7405357512905661,-8.3809432404716055,0.5627861954855802
4.5978137262208341,0.0929909519621246,0.9930743970783820,1.0069256029216180,0.0056131263527064,-0.0019895763374039,4.5980672002497336,7.6315404316269113,-8.3841249449590265,0.5757913330382742
4.6977700778803975,0.0935619604511889,0.9936626063296194,1.0063373936703808,0.0058121901273858,-0.0019901196051379,4.6980251828613531,7.5209234093050394,-8.3874108146020543,0.5889849606437860
4.7977263137373596,0.0941528950137385,0.9942707177546743,1.0057292822453257,0.0060109830345028,-0.0011589910830996,4.7979831654858032,7.4086106389587183,-8.3011265473411235,0.6023755972572675
4.8976824304323721,0.0947636446838528,0.9948987417691346,1.0051012582308656,0.0060438909484180,0.0037362574755594,4.8979411480580142,7.2957510836235784,-8.1376945130518656,0.6159712887205291
4.9976386273031492,0.0953611579482701,0.9954954517744102,1.0045045482255899,0.0052640455145929,0.0070212705660174,4.9978991308056200,7.1833925702771362,-8.1373367197581299,0.6297784564836140
5.0975955749210025,0.0958160062957992,0.9958749962113743,1.0041250037886256,0.0046402268659962,0.0021563817253378,5.0978571132987529,7.0692535175903926,-8.3922309229125762,0.6438050424069425
5.1975524393688408,0.0962888100478879,0.9962702618877965,1.0037297381122035,0.0048329503807747,-0.0019762592338990,5.1978150959396183,6.9495758395849512,-8.4045527474755204,0.6580655744519670
5.2975092043463672,0.0967821864697529,0.9966855589841394,1.0033144410158605,0.0050353126383034,-0.0020126340378013,5.2977730785376380,6.8276203816256711,-8.4061767584751408,0.6725762166745305
5.3974658692733373,0.0972954451756012,0.9971208874077511,1.0028791125922492,0.0052353080571566,-0.0020056361424631,5.3977310611994627,6.7034223449099857,-8.4098737185141719,0.6873508330410575
5.4974224287447102,0.0978288033462441,0.9975762772448078,1.0024237227551924,0.0054362713233551,-0.0020101509956907,5.4976890436335450,6.5768231780535436,-8.4130504068338698,0.7024044677440063
5.5973788799424113,0.0983822372486935,0.9980517495850573,1.0019482504149431,0.0056371693347286,-0.0020131154328723,5.5976470269321430,6.4476895095273612,-8.4163079397005411,0.7177536766850686
5.6973352146264764,0.0989557575097911,0.9985473284622315,1.0014526715377687,0.0058387252343821,-0.0020098409467852,5.6976050069485611,6.3158646066529931,-7.4696014594500744,0.7334167089575140
5.7972914438166612,0.0995494850441892,0.9990630327898423,1.0009369672101578,0.0060389686422253,-0.0268354945821714,5.7975629994569440,6.1965194259457732,-2.8731807650360843,0.7493941585383388
5.8972475063007517,0.1001630362465832,0.9995988822506551,1.0004011177493450,0.0112035683062086,-0.1487692619046156,5.8975209449760539,6.1499966262890968,0.0000000000000000,0.7655862478850362
5.9971923610199509,0.1017891823342261,1.0002132748669521,0.9997867251330480,0.0357803286322176,-0.2247342012218285,5.9974790278705363,6.1499966262890968,0.0000000000000000,0.7818396036132648
6.0969974939888232,0.1073132080034982,1.0010687308116253,0.9989312691883745,0.0561315243963680,-0.1053049357031879,6.0974369161361910,6.1499966262890968,4.5171084391664333,0.7980929276945121
6.1967933308203893,0.1130048707845288,1.0019615270957203,0.9980384729042799,0.0568324596089271,-0.0037016368082270,6.1973949276916711,6.2229816694641151,8.3566522606052054,0.8142503974913822
6.2965907083907116,0.1186688098598359,1.0028745741888296,0.9971254258111703,0.0568715407709337,-0.0014797684291998,6.2973529027399993,6.3557949097491067,8.4402230837404577,0.8301435130768060
6.3963860732814029,0.1243682713729126,1.0038087343315267,0.9961912656684733,0.0571282889347293,-0.0022093188468475,6.3973108874896196,6.4871769141413500,8.4070242091473837,0.8457096898340700
6.4961805360639282,0.1300834556764391,1.0047630154269893,0.9952369845730107,0.0573132188837076,-0.0019858820427159,6.4972688693303713,6.6154487876359473,-1.5870952751037284,0.8609673922390457
6.5959737849179447,0.1358198270324303,1.0057376606394803,0.9942623393605199,0.0575252984604291,-0.0019936624781269,6.5972268528693236,6.5914245027206970,-8.4093034478241506,0.8761046592274313
6.6957658123515351,0.1415773394276985,1.0067327262016394,0.9932672737983603,0.0577117838382220,-0.0021715547017927,6.6971848324821996,6.4626405601638250,-7.8008901741539027,0.8914191193793234
6.7955569242646670,0.1473509308953379,1.0077480388805937,0.9922519611194064,0.0579594269308363,0.0173881097845045,6.7971428255357536,6.3408359352845087,-3.1588312233048805,0.9070333149595768
6.8953460364615031,0.1531578652169903,1.0087828637021412,0.9912171362978588,0.0542356238527331,0.1349642268655367,6.8971007536817925,6.2908425436745929,0.0000000000000000,0.9228598622094204
6.9951775068431425,0.1581881056699680,1.0098514374873513,0.9901485625126488,0.0309779120253308,0.2147836880501821,6.9970588739000865,6.2908425436745929,0.0000000000000000,0.9387493268597161
7.0951286341817603,0.1593486933836734,1.0108037797392959,0.9891962202607040,0.0112969311992910,0.0989713468851588,7.0970167391238990,6.2908425436745929,4.5832386474000222,0.9546387509757782
7.1950806171207402,0.1604464934264236,1.0117668716983312,0.9882331283016687,0.0111919684445578,-0.0009535787055808,7.1969747506005586,6.3632509577998242,8.4613886801512805,0.9704372767990643
7.2950320948687972,0.1615861000277237,1.0127653277024948,0.9872346722975053,0.0114875668261425,-0.0024773678681539,7.2969327248058518,6.4948078720469802,8.3954983573275594,0.9859851873395366
7.3949833847301401,0.1627429908474314,1.0137841382677633,0.9862158617322369,0.0116872338179275,-0.0020920601664638,7.3968907096860752,6.6227579972795922,8.4082403091011564,1.0012255125455962
7.4949344072272446,0.1639225114719000,1.0148248205935018,0.9851751794064986,0.0119058030571095,-0.0021618108025045,7.4968486916941179,6.7484713052367393,8.4015471043684649,1.0161767155721171
7.5948851797170427,0.1651230947088077,1.0158867988391089,0.9841132011608911,0.0121194143101990,-0.0021473672765397,7.5968066744739646,6.8717878575497897,8.3985981640953575,1.0308545541631702
7.6948356897305645,0.1663453165575606,1.0169703367477692,0.9830296632522308,0.0123350960591462,-0.0021713648817066,7.6967646570376935,6.9928879739962619,8.3938192102157920,1.0452736410250925
7.7947859349010287,0.1675890147945905,1.0180754374528511,0.9819245625471489,0.0125535048163510,-0.0006133749704993,7.7967226396851075,7.1118591582498389,8.4689763890983105,1.0594473063464496
7.8947359014655651,0.1688548966583974,1.0192024553645900,0.9807975446354101,0.0124577195083944,0.0051041048070695,7.8966806222234975,7.2299117750371726,8.2332001512655157,1.0733867261019818
7.9946863832152877,0.1700794473446648,1.0203189955023022,0.9796810044976977,0.0115331127766334,0.0077287643210762,7.9966386050281981,7.3428586009208212,8.0832837898998839,1.0871051859728120
8.0946385196866739,0.1711604983243524,1.0213719455020309,0.9786280544979693,0.0109126161288839,0.0020499553618008,8.0965965874829049,7.4520835953182463,8.3861587015988412,1.1006176392326992
8.1945904439679822,0.1722610102202287,1.0224434411369676,0.9775565588630324,0.0111232939720727,-0.0021659746831307,8.1965545701254605,7.5637343239616488,8.3760844217638368,1.1139313305920240
8.2945421162156450,0.1733841765055477,1.0235372535121936,0.9764627464878066,0.0113456290483762,-0.0022089174629919,8.2965125527361980,7.6736295144754720,8.3699288010126125,1.1270514455503069
8.3944935412218129,0.1745291339282490,1.0246529616963032,0.9753470383036966,0.0115648918387885,-0.0021982618359430,8.3964705353502112,7.7818938774936637,8.3668779404117650,1.1399863659770009
8.4944447113253450,0.1756961314693371,1.0257906817540861,0.9742093182459142,0.0117850966851334,-0.0022025521081594,8.4964285179645387,7.8886338994772167,8.3629339823589159,1.1527438153797227
8.5943956223881646,0.1768851083559516,1.0269503935728426,0.9730496064271575,0.0120052171694576,-0.0022017993329741,8.5963865005788573,7.9938994751752901,0.4880609744283296,1.1653309738961148
8.6943462690446243,0.1780961083824601,1.0281321225476021,0.9718678774523979,0.0122252715240223,-0.0022061772587295,8.6963444831920960,8.0000000000000000,0.0000000000000000,1.1778304875723611
8.7942966471504800,0.1793290744189746,1.0293358437995190,0.9706641562004809,0.0124462672256043,-0.0016886412296522,8.7963024658085462,8.0000000000000000,0.0000000000000000,1.1903252353994174
8.8942467487888361,0.1805842516522761,1.0305616826370105,0.9694383173629892,0.0125628578653689,-0.0000102888147924,8.8962604484182641,8.0000000000000000,0.0000000000000000,1.2028199832256321
8.9941968366792153,0.1818405242121954,1.0318009030068465,0.9681990969931534,0.0124483241239446,0.0006415337121210,8.9962184310411608,8.0000000000000000,0.0000000000000000,1.2153147310534942
9.0941472232160745,0.1830728060945783,1.0330426142795635,0.9669573857204363,0.0124346050340807,-0.0010206891353359,9.0961764136513814,8.0000000000000000,0.0000000000000000,1.2278094788797718
9.1940973455260817,0.1843263362053935,1.0343054325311385,0.9656945674688614,0.0126523761776254,-0.0021977504205353,9.1961343962616962,8.0000000000000000,0.0000000000000000,1.2403042267060611
9.2940471858781439,0.1856021505895462,1.0355904219694840,0.9644095780305159,0.0128739704307295,-0.0022123049616621,9.2960923788781216,8.0000000000000000,0.0000000000000000,1.2527989745331143
9.3939967428251041,0.1868999773212462,1.0368974602489718,0.9631025397510281,0.0130946512594186,-0.0022093939786356,9.3960503614914135,8.0000000000000000,0.0000000000000000,1.2652937223597758
9.4939460103442102,0.1882199056068639,1.0382265917581710,0.9617734082418288,0.0133156635605360,-0.0022119656265166,9.4960083441055350,8.0000000000000000,0.0000000000000000,1.2777884701865410
9.5938949838572416,0.1895619123735133,1.0395778107359486,0.9604221892640514,0.0135368585026974,-0.0022103754598005,9.5959663267205837,8.0000000000000000,0.0000000000000000,1.2902832180134221
9.6938436576700742,0.1909260570733848,1.0409511540679608,0.9590488459320392,0.0137575529040945,-0.0022199236623556,9.6959243093318097,8.0000000000000000,0.0000000000000000,1.3027779658398253
9.7937920291069478,0.1923121800657265,1.0423465412450599,0.9576534587549400,0.0139806566844010,-0.0012008805307207,9.7958822919536743,8.0000000000000000,0.0000000000000000,1.3152727136675584
9.8937400842638681,0.1937209224820477,1.0437642948762786,0.9562357051237210,0.0139976280945060,0.0017877788808894,9.8958402745505953,8.0000000000000000,0.0000000000000000,1.3277674614921735
9.9936884086232212,0.1951104380035975,1.0451591895516414,0.9548408104483588,0.0136232511437784,0.0027464878008113,9.9957982572014430,8.0000000000000000,0.0000000000000000,1.3402622093235295
10.0936374905562456,0.1964443435356455,1.0464924821190238,0.9535075178809759,0.0134485613347879,-0.0002083574202621,10.0957562397902425,8.0000000000000000,0.0000000000000000,1.3527569571471294
10.1935862942452911,0.1977989390652092,1.0478447096112093,0.9521552903887904,0.0136649051185569,-0.0021986275712437,10.1957142224025379,8.0000000000000000,0.0000000000000000,1.3652517049736663
10.2935347896859888,0.1991760911965710,1.0492192750396740,0.9507807249603257,0.0138881020878727,-0.0022242495065181,10.2956722050194962,8.0000000000000000,0.0000000000000000,1.3777464528007861
