# x_m,y_m,w_tr_right_m,w_tr_left_m,psi,kappa,s,velocity,acceleration,time
-0.0074330651795659,0.2206447008449711,1.1207349534684410,0.7792650465315591,0.0675276882509250,0.0000000000000000,0.0000000000000000,8.0000000000000000,0.0000000000000000,0.0000000000000000
0.0923047293522158,0.2273900195180956,1.1274845097014863,0.7725154902985137,0.0675276882509250,0.0025789273533354,0.0999656290035025,8.0000000000000000,0.0000000000000000,0.0124957036254378
0.1920425238839974,0.2341353381912202,1.1342340659345316,0.7657659340654683,0.0670120800608640,0.0051581452564643,0.1999312580070049,8.0000000000000000,0.0000000000000000,0.0249914072508756
0.2917872212607354,0.2407778020482241,1.1408797325937270,0.7591202674062730,0.0664964137808481,0.0054283434748958,0.2998968870045191,8.0000000000000000,0.0000000000000000,0.0374871108755649
0.3915319194151682,0.2474202543173021,1.1475253875484177,0.7524746124515825,0.0659267845210665,0.0056986025476212,0.3998625160080216,8.0000000000000000,0.0000000000000000,0.0499828145010027
0.4912841195353892,0.2539490788913883,1.1540571167604001,0.7459428832395999,0.0653570850047036,0.0059683982753383,0.4998281449969086,8.0000000000000000,0.0000000000000000,0.0624785181246136
0.5910363213460936,0.2604778778607530,1.1605888203004993,0.7394111796995005,0.0647335151456785,0.0062382546730011,0.5997937740004110,8.0000000000000000,0.0000000000000000,0.0749742217500514
0.6907965862338610,0.2668822924582652,1.1669955096367870,0.7330044903632130,0.0641098629003263,0.0065085602542187,0.6997594029776466,8.0000000000000000,0.0000000000000000,0.0874699253722058
0.7905568538470700,0.2732866650119826,1.1734021567163873,0.7265978432836130,0.0634322505064091,0.0067789267871192,0.7997250319811491,8.0000000000000000,0.0000000000000000,0.0999656289976436
0.8903257065269999,0.2795558761848063,1.1796735847738204,0.7203264152261796,0.0627545435401204,0.0070829903862794,0.8996906609433030,8.0000000000000000,0.0000000000000000,0.1124613326179129
0.9900945630762175,0.2858250264404275,1.1859449518880723,0.7140550481119278,0.0620161393283216,0.0073871337661015,0.9996562899468054,8.0000000000000000,0.0000000000000000,0.1249570362433507
1.0898725653606027,0.2919468913470289,1.1920682741820954,0.7079317258179045,0.0612776245936510,0.0076223477824144,1.0996219188889447,8.0000000000000000,0.0000000000000000,0.1374527398611181
1.1896505727974760,0.2980686732765925,1.1981915130712129,0.7018084869287868,0.0604921937476843,0.0078575836241166,1.1995875478924469,8.0000000000000000,0.0000000000000000,0.1499484434865559
1.2894380685526867,0.3040337932516197,1.2041573467150877,0.6958426532849123,0.0597066480154407,0.0081274739445841,1.2995531768126547,8.0000000000000000,0.0000000000000000,0.1624441471015818
1.3892255707225176,0.3099988073146278,1.2101230739444384,0.6898769260555621,0.0588672576582014,0.0083974445026938,1.3995188058161572,8.0000000000000000,0.0000000000000000,0.1749398507270196
1.4890229399580279,0.3157963976374640,1.2159209428321027,0.6840790571678977,0.0580277363729049,0.0086674193017879,1.4994844347086931,8.0000000000000000,0.0000000000000000,0.1874355543385866
1.5888203169760642,0.3215938559068994,1.2217186793235792,0.6782813206764211,0.0571343696144826,0.0089374547521683,1.5994500637121956,8.0000000000000000,0.0000000000000000,0.1999312579640244
1.6886278856250641,0.3272131257639804,1.2273376934595479,0.6726623065404522,0.0562408598022068,0.0092073208966611,1.6994156925720767,8.0000000000000000,0.0000000000000000,0.2124269615715096
1.7884354634608963,0.3328322350003409,1.2329565464934946,0.6670434535065054,0.0552935383660613,0.0094772475477233,1.7993813215755790,8.0000000000000000,0.0000000000000000,0.2249226651969474
1.8882534994370124,0.3382623951841141,1.2383859466095446,0.6616140533904554,0.0543460617792682,0.0097457512614212,1.8993469503974427,8.0000000000000000,0.0000000000000000,0.2374183687996803
1.9880715460184994,0.3436923637587890,1.2438151546055374,0.6561848453944625,0.0533450580579122,0.0100143139810350,1.9993125794009452,8.0000000000000000,0.0000000000000000,0.2499140724251182
2.0879002531279127,0.3489226767404748,1.2490442090949860,0.6509557909050142,0.0523438873892188,0.0102857723257877,2.0992782081791579,8.0000000000000000,0.0000000000000000,0.2624097760223947
2.1877289722489448,0.3541527647626711,1.2542730380639271,0.6457269619360734,0.0512886106595611,0.0105572945358159,2.1992438371826601,8.0000000000000000,0.0000000000000000,0.2749054796478325
2.2875684958151270,0.3591723724258018,1.2592909712226836,0.6407090287773166,0.0502331542144296,0.0108272868323733,2.2992094659108084,8.0000000000000000,0.0000000000000000,0.2874011832388511
2.3874080327721994,0.3641917192222681,1.2643086429998709,0.6356913570001291,0.0491238975853434,0.0110973379719069,2.3991750949143107,8.0000000000000000,0.0000000000000000,0.2998968868642888
2.4872584466439762,0.3689898194045422,1.2691046535756405,0.6308953464243596,0.0480144494768597,0.0113673881519564,2.4991407235859908,8.0000000000000000,0.0000000000000000,0.3123925904482489
2.5871088752216100,0.3737876204559322,1.2739003644599940,0.6260996355400064,0.0468512013756408,0.0116374988745912,2.5991063525894931,8.0000000000000000,0.0000000000000000,0.3248882940736866
2.6869701815575762,0.3783534062506699,1.2784637887400181,0.6215362112599822,0.0456877496914070,0.0119068333807881,2.6990719811977759,8.0000000000000000,0.0000000000000000,0.3373839976497220
2.7868315038256255,0.3829188522247963,1.2830268728020024,0.6169731271979979,0.0444706532036458,0.0121762271406188,2.7990376102012782,8.0000000000000000,0.0000000000000000,0.3498797012751598
2.8867036282300935,0.3872415430387524,1.2873462384527334,0.6126537615472670,0.0432533412870759,0.0124103020196824,2.8990032387389641,8.0000000000000000,0.0000000000000000,0.3623754048423705
2.9865757696721995,0.3915638509678352,1.2916652196993061,0.6083347803006944,0.0419894459143848,0.0126443776868667,2.9989688677424664,8.0000000000000000,0.0000000000000000,0.3748711084678083
3.0864585017731194,0.3956340724048353,1.2957325201373406,0.6042674798626597,0.0407253349562284,0.0129508716263485,3.0989344962079062,8.0000000000000000,0.0000000000000000,0.3873668120259883
3.1863412517706884,0.3997038678528804,1.2997993952719655,0.6002006047280345,0.0394001618648101,0.0132575483793463,3.1989001252114080,8.0000000000000000,0.0000000000000000,0.3998625156514260
3.2862344204575256,0.4035093514823876,1.3036017463322329,0.5963982536677671,0.0380747366390197,0.0135283639455190,3.2988657535841210,8.0000000000000000,0.0000000000000000,0.4123582191980151
3.3861276079232878,0.4073143587091926,1.3074036206072224,0.5925963793927775,0.0366954190509394,0.0137991793803780,3.3988313825876237,8.0000000000000000,0.0000000000000000,0.4248539228234530
3.4860308943461487,0.4108442593948746,1.3109301869539178,0.5890698130460821,0.0353158493560530,0.0140691430843113,3.4987970108652422,8.0000000000000000,0.0000000000000000,0.4373496263581553
3.5859342001081793,0.4143736332606157,1.3144562260950230,0.5855437739049772,0.0338825575852251,0.0143391656609006,3.5987626398687449,8.0000000000000000,0.0000000000000000,0.4498453299835931
3.6858471947012728,0.4176171387142190,1.3176964735350545,0.5823035264649457,0.0324490019385952,0.0146082109925770,3.6987282680425682,8.0000000000000000,0.0000000000000000,0.4623410335053210
3.7857602089384219,0.4208600645711004,1.3209361415338956,0.5790638584661045,0.0309619195963675,0.0148773143663732,3.7986938970460713,8.0000000000000000,0.0000000000000000,0.4748367371307589
3.8856824082263333,0.4238063984125789,1.3238779483199503,0.5761220516800500,0.0294745617755818,0.0150779839465263,3.8986595251071128,8.0000000000000000,0.0000000000000000,0.4873324406383891
3.9856046271700190,0.4267520975547431,1.3268191176906408,0.5731808823093597,0.0279473593119395,0.0152785598535483,3.9986251541106159,8.0000000000000000,0.0000000000000000,0.4998281442638270
4.0855353595308967,0.4293932152648616,1.3294575897767100,0.5705424102232903,0.0264199000995078,0.0156185087124574,4.0985907820681300,8.0000000000000000,0.0000000000000000,0.5123238477585162
4.1854661110681066,0.4320336469103203,1.3320953800421305,0.5679046199578696,0.0248247312332013,0.0159588316018763,4.1985564110716327,8.0000000000000000,0.0000000000000000,0.5248195513839541
4.2854047607604944,0.4343559389287527,1.3344146903083907,0.5655853096916094,0.0232292308401407,0.0162316362501262,4.2985220388771772,8.0000000000000000,0.0000000000000000,0.5373152548596472
4.3853434291315079,0.4366774785675049,1.3367332473900124,0.5632667526099875,0.0215795197976463,0.0165043493417351,4.3984876678806790,8.0000000000000000,0.0000000000000000,0.5498109584850849
4.4852891969128983,0.4386700187507458,1.3387229813281829,0.5612770186718171,0.0199294955358065,0.0167739464107875,4.4984532955423582,8.0000000000000000,0.0000000000000000,0.5623066619427948
4.5852349822818628,0.4406617438941605,1.3407119006633104,0.5592880993366900,0.0182258836125031,0.0170435963116162,4.5984189245458609,8.0000000000000000,0.0000000000000000,0.5748023655682326
4.6851869587835537,0.4423137355619935,1.3423615476957478,0.5576384523042524,0.0165219479097505,0.0173130566279408,4.6983845520538461,8.0000000000000000,0.0000000000000000,0.5872980690067308
4.7851389513184994,0.4439648474176395,1.3440103161103036,0.5559896838896964,0.0147644624468244,0.0175825760783798,4.7983501810573479,8.0000000000000000,0.0000000000000000,0.5997937726321685
4.8850961168925000,0.4452655013072865,1.3453075349521768,0.5546924650478232,0.0130066413845877,0.0177506495906870,4.8983158084005947,8.0000000000000000,0.0000000000000000,0.6122894760500743
4.9850532964441827,0.4465652082506829,1.3466038038982506,0.5533961961017494,0.0112155527731874,0.0179184982688710,4.9982814374040982,8.0000000000000000,0.0000000000000000,0.6247851796755123
5.0850144797215222,0.4475077902748610,1.3475468628599130,0.5524531371400873,0.0094241735162697,0.0182899873749992,5.0982470646120452,8.0000000000000000,0.0000000000000000,0.6372808830765057
5.1849756742669122,0.4484493672099550,1.3484889277506478,0.5515110722493527,0.0075588126212123,0.0186621091430579,5.1982126936155479,8.0000000000000000,0.0000000000000000,0.6497765867019435
5.2849396781746059,0.4490190161699599,1.3490578011572316,0.5509421988427686,0.0056930345960258,0.0189432252034089,5.2981783205940003,8.0000000000000000,0.0000000000000000,0.6622722900742500
5.3849036903043821,0.4495875766186972,1.3496255823546712,0.5503744176453289,0.0037714698139457,0.0192241466425170,5.3981439495975030,8.0000000000000000,0.0000000000000000,0.6747679936996879
5.4848691450203431,0.4497730476942011,1.3498108789905883,0.5501891210094120,0.0018495268165586,0.0195334708221952,5.4981095763703527,8.0000000000000000,0.0000000000000000,0.6872636970462941
5.5848346041200765,0.4499573546268978,1.3499950133216170,0.5500049866783833,-0.0001338815372065,0.0198429463233471,5.5980752053738554,8.0000000000000000,0.0000000000000000,0.6997594006717319
5.6848000078219130,0.4497462806427943,1.3497841082454256,0.5502158917545749,-0.0021176983555469,0.0202677357883776,5.6980408319136711,8.0000000000000000,0.0000000000000000,0.7122551039892089
5.7847654113491958,0.4495339608522816,1.3495719584388881,0.5504280415611125,-0.0041860354003971,0.0206929701019711,5.7980064609171738,8.0000000000000000,0.0000000000000000,0.7247508076146467
5.8847290862924710,0.4489093655543511,1.3489470045340917,0.5510529954659085,-0.0062548698425324,0.0211697791342985,5.8979720871466483,8.0000000000000000,0.0000000000000000,0.7372465108933310
5.9846927555954883,0.4482834250276123,1.3483207036757288,0.5516792963242713,-0.0084185359157223,0.0216468578062457,5.9979377161501510,8.0000000000000000,0.0000000000000000,0.7497422145187689
6.0846527914019459,0.4472262609007724,1.3472697485076024,0.5527302514923979,-0.0105827532876777,0.0224884071967603,6.0979033420143418,8.0000000000000000,0.0000000000000000,0.7622379177517927
6.1846128149452007,0.4461676413761714,1.3462173601133454,0.5537826398866549,-0.0129146713865462,0.0233313310390245,6.1978689710178445,8.0000000000000000,0.0000000000000000,0.7747336213772306
6.2845668325693786,0.4446442932042320,1.3446974356044288,0.5553025643955717,-0.0152474155653919,0.0240743681962921,6.2978345962540594,8.0000000000000000,0.0000000000000000,0.7872293245317574
6.3845208292515903,0.4431193245755575,1.3431758808494529,0.5568241191505476,-0.0177278900150597,0.0248172303755479,6.3978002252575621,8.0000000000000000,0.0000000000000000,0.7997250281571953
6.4844660590415062,0.4411001304112282,1.3411619416957643,0.5588380583042362,-0.0202091555454866,0.0255469687112092,6.4977658498633852,8.0000000000000000,0.0000000000000000,0.8122207312329232
6.5844112572840663,0.4390791577936241,1.3391462307140676,0.5608537692859327,-0.0228355274954100,0.0262768211928006,6.5977314788668870,8.0000000000000000,0.0000000000000000,0.8247164348583609
6.6843445013216902,0.4365350072074944,1.3366088214286203,0.5633911785713799,-0.0254627133294592,0.0270138249501213,6.6976971027887542,8.0000000000000000,0.0000000000000000,0.8372121378485943
6.7842777010107778,0.4339889156995163,1.3340694767106871,0.5659305232893128,-0.0282364353639943,0.0277510139977943,6.7976627317922578,8.0000000000000000,0.0000000000000000,0.8497078414740322
6.8841952931572834,0.4308904330289741,1.3309798137725155,0.5690201862274845,-0.0310110083070461,0.0283164920643610,6.8976283549595001,8.0000000000000000,0.0000000000000000,0.8622035443699375
6.9841128256676015,0.4277898396800736,1.3278880480766668,0.5721119519233330,-0.0338977870795050,0.0288814564773321,6.9975939839630019,8.0000000000000000,0.0000000000000000,0.8746992479953752
7.0840108626579692,0.4241145318944550,1.3242314697317112,0.5757685302682889,-0.0367853140458081,0.0297687240086550,7.0975596064631787,8.0000000000000000,0.0000000000000000,0.8871949508078973
7.1839088229921293,0.4204369643368803,1.3205726705485383,0.5794273294514619,-0.0398494853262230,0.0306574149834424,7.1975252354666814,8.0000000000000000,0.0000000000000000,0.8996906544333352
7.2837824596401255,0.4161495200283996,1.3162989676291623,0.5837010323708379,-0.0429146893597498,0.0314121819731177,7.2974908569372365,8.0000000000000000,0.0000000000000000,0.9121863571171546
7.3836559979548149,0.4118596101727042,1.3120227788399907,0.5879772211600094,-0.0461297621482271,0.0321665826317039,7.3974564859407383,8.0000000000000000,0.0000000000000000,0.9246820607425923
7.4835000001984353,0.4069300569236375,1.3071102072853942,0.5928897927146060,-0.0493457944171312,0.0328923801478947,7.4974221064272806,8.0000000000000000,0.0000000000000000,0.9371777633034101
7.5833438797780470,0.4019978472202855,1.3021949928179781,0.5978050071820220,-0.0527059768098972,0.0336182180213861,7.5973877354307824,8.0000000000000000,0.0000000000000000,0.9496734669288478
7.6831524982102852,0.3963974222479071,1.2966132532039893,0.6033867467960110,-0.0560671267171309,0.0343666886375292,7.6973533548867898,8.0000000000000000,0.0000000000000000,0.9621691693608487
7.7829609663192780,0.3907941485796101,1.2910286720993123,0.6089713279006881,-0.0595769517746176,0.0351154105249896,7.7973189838902908,8.0000000000000000,0.0000000000000000,0.9746648729862863
7.8827278118662782,0.3844932457966889,1.2847511491965293,0.6152488508034709,-0.0630877945437003,0.0355963386760118,7.8972846022111858,8.0000000000000000,0.0000000000000000,0.9871605752763982
7.9824944754036302,0.3781892923791353,1.2784705961560943,0.6215294038439059,-0.0666937721662944,0.0360762274678272,7.9972502312146885,8.0000000000000000,0.0000000000000000,0.9996562789018361
8.0822132841028260,0.3711690456896081,1.2714866516602628,0.6285133483397375,-0.0703005596686486,0.0370248632675577,8.0972158486637333,8.0000000000000000,0.0000000000000000,1.0121519810829667
8.1819318782956270,0.3641455882591598,1.2644995542551165,0.6355004457448838,-0.0740961992291123,0.0379757508316251,8.1971814776672360,8.0000000000000000,0.0000000000000000,1.0246476847084045
8.2815945200359824,0.3563685578802269,1.2567457560389357,0.6432542439610646,-0.0778930988081645,0.0387594879470618,8.2971470935568075,8.0000000000000000,0.0000000000000000,1.0371433866946009
8.3812569048584109,0.3485880673062278,1.2489884373482356,0.6510115626517646,-0.0818454319057864,0.0395426338074924,8.3971127225603102,8.0000000000000000,0.0000000000000000,1.0496390903200388
8.4808549573416041,0.3400234882498780,1.2404508238090843,0.6595491761909157,-0.0857989067548202,0.0402528513290886,8.4970783370127680,8.0000000000000000,0.0000000000000000,1.0621347921265960
8.5804527074397843,0.3314552236970931,1.2319095426049349,0.6680904573950651,-0.0898932345246590,0.0409628858775161,8.5970439660162707,8.0000000000000000,0.0000000000000000,1.0746304957520338
8.6799772876890682,0.3220753668227209,1.2225538433604730,0.6774461566395269,-0.0939886674056534,0.0417661577613970,8.6970095790478528,8.0000000000000000,0.0000000000000000,1.0871261973809816
8.7795015160714804,0.3126916070777643,1.2131942276568133,0.6868057723431868,-0.0982435943209283,0.0425700269537218,8.7969752080513537,8.0000000000000000,0.0000000000000000,1.0996219010064192
8.8789426707685521,0.3024651605218214,1.2030030139274448,0.6969969860725553,-0.1024997456972594,0.0425698855303176,8.8969408194217063,8.0000000000000000,0.0000000000000000,1.1121176024277133
8.9783834170132817,0.2922345706875527,1.1928077114405087,0.7071922885594915,-0.1067546443375778,0.0425658772109089,8.9969064484252073,8.0000000000000000,0.0000000000000000,1.1246133060531509
9.0777339468153162,0.2811622805229846,1.1818146878283562,0.7181853121716441,-0.1110099943096241,0.0438720782712881,9.0968720594193559,8.0000000000000000,0.0000000000000000,1.1371090074274195
9.1770840233143058,0.2700857611368727,1.1708176559733083,0.7291823440266918,-0.1155260433476304,0.0451850037596229,9.1968376884228586,8.0000000000000000,0.0000000000000000,1.1496047110528573
9.2763304933313222,0.2581165913058444,1.1588707420948474,0.7411292579051528,-0.1200438880176045,0.0460975969346473,9.2968032966953160,8.0000000000000000,0.0000000000000000,1.1621004120869145
9.3755764315898293,0.2461428399615665,1.1469189529630321,0.7530810470369681,-0.1247423929382230,0.0470083362434326,9.3967689256988187,8.0000000000000000,0.0000000000000000,1.1745961157123523
9.4747060448078049,0.2332415924310130,1.1340406169760051,0.7659593830239951,-0.1294423227433026,0.0476597822128013,9.4967345318070695,8.0000000000000000,0.0000000000000000,1.1870918164758837
9.5738350486337147,0.2203354860255765,1.1211574270873563,0.7788425729126438,-0.1342710720611855,0.0483100521316080,9.5967001608105704,8.0000000000000000,0.0000000000000000,1.1995875201013213
9.6728354454974550,0.2064775110272547,1.1073029815949951,0.7926969672728523,-0.1391010110486635,0.0492833390960238,9.6966657651464221,8.0000000000000000,0.0000000000000000,1.2120832206433028
9.7718351548773654,0.1926144477020306,1.0934433441401568,0.8065565533222048,-0.1441243508297352,0.0502584867605418,9.7966313941499248,8.0000000000000000,0.0000000000000000,1.2245789242687406
9.8706913286064744,0.1777625637928227,1.0786275222089443,0.8213683240499881,-0.1491492521642097,0.0489483257754102,9.8965969959338000,8.0000000000000000,0.0000000000000000,1.2370746244917250
9.9695467199304346,0.1629052898755665,1.0638064881673586,0.8361852850854603,-0.1539106498469944,0.0476256814891227,9.9965626249373010,8.0000000000000000,0.0000000000000000,1.2495703281171626
10.0682569843339103,0.1471127060038925,1.0482589877622996,0.8516944472979884,-0.1586711133919319,0.0498510376835492,10.0965282290416525,8.0000000000000000,0.0000000000000000,1.2620660286302066
10.1669664423014634,0.1313149248363475,1.0327074505557361,0.8672074559084963,-0.1638774292827725,0.0520962379431474,10.1964938580451552,8.0000000000000000,0.0000000000000000,1.2745617322556444
10.2655069107045680,0.1144953827998563,1.0159577452994693,0.8839081708401104,-0.1690867781984624,0.0533635091403053,10.2964594566649836,8.0000000000000000,0.0000000000000000,1.2870574320831230
