# x_m,y_m,w_tr_right_m,w_tr_left_m,psi,kappa,s,velocity,acceleration,time
-0.0324586111730797,0.1067600976217137,1.0940042009638555,0.7741499682630848,0.1845176276842799,-0.0000000000000022,0.0000000000000000,8.0000000000000000,0.0000000000000000,0.0000000000000000
0.0658319494399665,0.1251051088207504,1.0987362381801782,0.7675694950486663,0.1845176276842801,0.0189879546922015,0.0999878679716679,8.0000000000000000,0.0000000000000000,0.0124984834964585
0.1641225100530127,0.1434501200197871,1.1034682753965006,0.7609890218342479,0.1807204974706482,0.0379785247887316,0.1999757359433358,8.0000000000000000,0.0000000000000000,0.0249969669929170
0.2625495513969794,0.1610481652060462,1.1074701281760346,0.7551261065451763,0.1769228442546935,0.0381089062733633,0.2999636035178799,8.0000000000000000,0.0000000000000000,0.0374954504397350
0.3609766115389233,0.1786461075100164,1.1114718803846659,0.7492632900879130,0.1730996409077707,0.0382393106071900,0.3999514714895478,8.0000000000000000,0.0000000000000000,0.0499939339361935
0.4595353356032981,0.1954910323163004,1.1147119310287510,0.7441682466265984,0.1692759100047634,0.0382130900914988,0.4999393386581544,8.0000000000000000,0.0000000000000000,0.0624924173322693
0.5580940958506506,0.2123357501834708,1.1179517723472265,0.7390734141594026,0.1654579501247417,0.0381868439826455,0.5999272066298224,8.0000000000000000,0.0000000000000000,0.0749909008287278
0.6567785714365075,0.2284276046377630,1.1204388918154207,0.7347280793308822,0.1616394678218267,0.0382481880847802,0.6999150734009147,8.0000000000000000,0.0000000000000000,0.0874893841751143
0.7554630988282254,0.2445191488456065,1.1229257010955025,0.7303830533618133,0.1578092406099085,0.0383095712602692,0.7999029413725827,8.0000000000000000,0.0000000000000000,0.0999878676715728
0.8542679482075037,0.2598545705437699,1.1247967669827137,0.7266894615667405,0.1539784831770661,0.0376314269785513,0.8998908077340687,8.0000000000000000,0.0000000000000000,0.1124863509667586
0.9530728636793236,0.2751895769058880,1.1266674946437480,0.7229962276026939,0.1502838683658683,0.0369527962757181,0.9998786757057365,8.0000000000000000,0.0000000000000000,0.1249848344632171
1.0519883313257261,0.2897944948223310,1.1333095884677027,0.7156154074701195,0.1465888206158616,0.0376112948659223,1.0998665418048414,8.0000000000000000,0.0000000000000000,0.1374833177256052
1.1509038748971008,0.3043989113289631,1.1399549591683424,0.7082320547787920,0.1427625220657032,0.0382707098881322,1.1998544097765094,8.0000000000000000,0.0000000000000000,0.1499818012220637
1.2499282101322648,0.3182464486828330,1.1462854734804955,0.7012434739206227,0.1389356073331496,0.0383784422978806,1.2998422753379513,8.0000000000000000,0.0000000000000000,0.1624802844172439
1.3489526350475793,0.3320933621190813,1.1526157282473191,0.6942552184844212,0.1350877649153264,0.0384858196688251,1.3998301433096192,8.0000000000000000,0.0000000000000000,0.1749787679137024
1.4480806028143800,0.3451784368042341,1.1581888223956891,0.6880280202698666,0.1312393773308891,0.0384677637577760,1.4998180084388033,8.0000000000000000,0.0000000000000000,0.1874772510548504
1.5472086701492791,0.3582627788957344,1.1637611884489576,0.6818015538974362,0.1273951456571147,0.0384496015510188,1.5998058764104712,8.0000000000000000,0.0000000000000000,0.1999757345513089
1.6464343108124158,0.3705853325374626,1.1685904661438140,0.6763148330108391,0.1235503900886372,0.0385966714726438,1.6997937411404633,8.0000000000000000,0.0000000000000000,0.2124742176425579
1.7456600587119397,0.3829070489479225,1.1734189271594351,0.6708289251295475,0.1196767479995275,0.0387439363990930,1.7997816091121313,8.0000000000000000,0.0000000000000000,0.2249727011390164
1.8449781865228423,0.3944605111756557,1.1774709440494979,0.6660147651947969,0.1158025430372973,0.0367036026575996,1.8997694733823036,8.0000000000000000,0.0000000000000000,0.2374711841727880
1.9442964285393969,0.4060130236409494,1.1815220010522172,0.6612014357156204,0.1123369181821605,0.0346603156296636,1.9997573413539715,8.0000000000000000,0.0000000000000000,0.2499696676692464
2.0436922503274797,0.4168778151434194,1.1855817486396583,0.6542829630381298,0.1088713210253078,0.0364098100986477,2.0997452060342439,8.0000000000000000,0.0000000000000000,0.2624681507542805
2.1430881787235134,0.4277416615989946,1.1896415081694574,0.6473615975317881,0.1050558397319654,0.0381644798416437,2.1997330740059122,8.0000000000000000,0.0000000000000000,0.2749666342507390
2.2425640134572498,0.4378476582020432,1.1930911886820887,0.6406684697326707,0.1012393512496821,0.0385604534633392,2.2997209375860210,8.0000000000000000,0.0000000000000000,0.2874651171982526
2.3420399690306173,0.4479525087345906,1.1965399465930167,0.6339756870896585,0.0973446848416659,0.0389546543772199,2.3997088055576890,8.0000000000000000,0.0000000000000000,0.2999636006947111
2.4415915035777069,0.4572833561315444,1.1992223703587115,0.6280369384893597,0.0934493657665270,0.0388423125807422,2.4996966685402811,8.0000000000000000,0.0000000000000000,0.3124620835675351
2.5411431628033032,0.4666129266977846,1.2019035299448075,0.6220994337778524,0.0895771649913781,0.0387291752285673,2.5996845365119490,8.0000000000000000,0.0000000000000000,0.3249605670639936
2.6407639727841179,0.4751725348811640,1.2038283591864916,0.6169197671583398,0.0857044706545611,0.0388888385329796,2.6996723991428033,8.0000000000000000,0.0000000000000000,0.3374590498928504
2.7403849063464949,0.4837307670397453,1.2057518367656366,0.6117414548959110,0.0818003410934620,0.0390489937768525,2.7996602671144712,8.0000000000000000,0.0000000000000000,0.3499575333893089
2.8400695139148877,0.4915122570333886,1.2072393925728693,0.6077074807103179,0.0778956196144445,0.0377642836454283,2.8996481292407594,8.0000000000000000,0.0000000000000000,0.3624560161550949
2.9397542440266169,0.4992922521536551,1.2087261094300865,0.6036757088520894,0.0742484008998412,0.0364766446043797,2.9996359972124274,8.0000000000000000,0.0000000000000000,0.3749544996515534
3.0394929610275239,0.5063463984491601,1.2137843376501054,0.6046229881276373,0.0706011759642315,0.0375071669008124,3.0996238597205608,8.0000000000000000,0.0000000000000000,0.3874529824650701
3.1392317893683872,0.5133990477890477,1.2188499315829482,0.6055805359581637,0.0667478778006234,0.0385424382132579,3.1996117276922282,8.0000000000000000,0.0000000000000000,0.3999514659615285
3.2390219064407964,0.5196843460946938,1.2243227471850930,0.6084510240159194,0.0628936237683115,0.0389076135534834,3.2995995891560885,8.0000000000000000,0.0000000000000000,0.4124499486445111
3.3388121363653878,0.5259679559741244,1.2297964588096728,0.6113257211752262,0.0589672993996699,0.0392714977596368,3.3995874571277565,8.0000000000000000,0.0000000000000000,0.4249484321409696
3.4386485317869027,0.5314694517439146,1.2345998833285103,0.6150782234368928,0.0550402773840488,0.0391690657827753,3.4995753179232856,8.0000000000000000,0.0000000000000000,0.4374469147404107
3.5384850351366071,0.5369691190451411,1.2394017408139877,0.6188327778786886,0.0511344369246292,0.0390655803335119,3.5995631858949535,8.0000000000000000,0.0000000000000000,0.4499453982368692
3.6383613596012174,0.5416905647799065,1.2434489053924336,0.6233635795334818,0.0472281095004408,0.0392930582212844,3.6995510463500429,8.0000000000000000,0.0000000000000000,0.4624438807937554
3.7382377826412707,0.5464100840609365,1.2474942017613200,0.6278963027545840,0.0432767789847128,0.0395213695703418,3.7995389143217109,8.0000000000000000,0.0000000000000000,0.4749423642902139
3.8381482993782527,0.5503421017868841,1.2507575464281553,0.6325530378266352,0.0393247948559712,0.0378793164691815,3.8995267741750346,8.0000000000000000,0.0000000000000000,0.4874408467718793
3.9380589051998567,0.5542720618222815,1.2540188479058467,0.6372100969336197,0.0357018351042750,0.0362321892151813,3.9995146421467025,8.0000000000000000,0.0000000000000000,0.4999393302683378
4.0379952909035985,0.5574800391038147,1.2569043429287259,0.6369382050110455,0.0320792364129612,0.0373975879176484,4.0995025029387300,8.0000000000000000,0.0000000000000000,0.5124378128673412
4.1379317475249175,0.5606860302913987,1.2597888041500054,0.6366527540944883,0.0282232252064389,0.0385706628498270,4.1994903709103975,8.0000000000000000,0.0000000000000000,0.5249362963637997
4.2378898997527745,0.5631232081027435,1.2620517120133870,0.6350269309150118,0.0243660400533765,0.0391722667014951,4.2994782303358878,8.0000000000000000,0.0000000000000000,0.5374347787919860
4.3378481146612708,0.5655581647402882,1.2643128241509438,0.6333972352746172,0.0203897226790120,0.0397724523466440,4.3994660983075562,8.0000000000000000,0.0000000000000000,0.5499332622884445
4.4378224868201528,0.5672003431336528,1.2658056142893781,0.6322618732896671,0.0164125150035821,0.0395883706412191,4.4994539567626619,8.0000000000000000,0.0000000000000000,0.5624317445953327
4.5377969078826563,0.5688401220019267,1.2672960789251535,0.6311280075188450,0.0124730095019818,0.0394019725308980,4.5994418247343294,8.0000000000000000,0.0000000000000000,0.5749302280917912
4.6377811152758088,0.5696945583543724,1.2680128116795473,0.6307342623294316,0.0085330769337071,0.0397580223672880,4.6994296829448006,8.0000000000000000,0.0000000000000000,0.5874287103681001
4.7377653536370623,0.5705465095500247,1.2687270960181194,0.6303428591954319,0.0045223701075177,0.0401158081811792,4.7994175509164689,8.0000000000000000,0.0000000000000000,0.5999271938645586
4.8377531973210584,0.5705989122857917,1.2686949740091480,0.6299878834487987,0.0005108890931673,0.0378476762869837,4.8994054083323668,8.0000000000000000,0.0000000000000000,0.6124256760415459
4.9377410529096020,0.5706486749625702,1.2686603874131182,0.6296330279831196,-0.0030462464122056,0.0355706201581879,4.9993932763040334,8.0000000000000000,0.0000000000000000,0.6249241595380042
5.0377267409889672,0.5699897417115662,1.2681923431582272,0.6243876692550173,-0.0066023715435977,0.0369744104686895,5.0993811356357215,8.0000000000000000,0.0000000000000000,0.6374226419544652
5.1377124216119698,0.5693283705036594,1.2677228077827440,0.6191254868995730,-0.0104402310372946,0.0383907516930104,5.1993690036073898,8.0000000000000000,0.0000000000000000,0.6499211254509237
5.2376901047234243,0.5679020021411917,1.2665166191929895,0.6116744587901304,-0.0142795899647332,0.0393895674635643,5.2993568611053874,8.0000000000000000,0.0000000000000000,0.6624196076381734
5.3376677592152486,0.5664728961853479,1.2653077944405409,0.6042155977500662,-0.0183171883667572,0.0403872078142974,5.3993447290770549,8.0000000000000000,0.0000000000000000,0.6749180911346319
5.4376306629913929,0.5642392436219119,1.2632857244812390,0.5969829345930072,-0.0223560510840985,0.0401490351810405,5.4993325850153276,8.0000000000000000,0.0000000000000000,0.6874165731269160
5.5375935119486597,0.5620026010786333,1.2612606322150222,0.5897511120673103,-0.0263460207413715,0.0399063702392788,5.5993204529869960,8.0000000000000000,0.0000000000000000,0.6999150566233745
5.6375354085828127,0.5589713301497847,1.2584612429967725,0.5832743837695551,-0.0303363563555579,0.0400236411449359,5.6993083087809664,8.0000000000000000,0.0000000000000000,0.7124135385976208
5.7374772244665690,0.5559369967177027,1.2556588696327735,0.5768005656101195,-0.0343497773470662,0.0401422836843279,5.7992961767526348,8.0000000000000000,0.0000000000000000,0.7249120220940793
5.8373915696249989,0.5521036142148850,1.2525939212748973,0.5716509983382964,-0.0383638385655662,0.0398499298441350,5.8992840319644095,8.0000000000000000,0.0000000000000000,0.7374105039955512
5.9373058051268925,0.5482670421000974,1.2495279247807123,0.5665067171579500,-0.0423187958864566,0.0395559121218919,5.9992718999360779,8.0000000000000000,0.0000000000000000,0.7499089874920097
6.0371867031760429,0.5436434737691456,1.2490472463507187,0.5656387906293839,-0.0462740606962186,0.0397611550392012,6.0992597550946712,8.0000000000000000,0.0000000000000000,0.7624074693868339
6.1370674635552325,0.5390166554677108,1.2485772442203378,0.5647885236855879,-0.0502700616179153,0.0399684491804948,6.1992476230663387,8.0000000000000000,0.0000000000000000,0.7749059528832923
6.2369082199419434,0.5335949949549545,1.2495070849824010,0.5670343621355770,-0.0542667801953760,0.0402001797943734,6.2992354775216981,8.0000000000000000,0.0000000000000000,0.7874044346902123
6.3367488056111183,0.5281699424431342,1.2504428995914911,0.5692934132540035,-0.0583091216139915,0.0404320720769059,6.3992233454933665,8.0000000000000000,0.0000000000000000,0.7999029181866708
6.4365424664265145,0.5219412870481420,1.2511333945314536,0.5729348379274927,-0.0623522129875220,0.0404117219641990,6.4992111991905430,8.0000000000000000,0.0000000000000000,0.8124013998988179
6.5363359205232978,0.5157090915318802,1.2518228087617811,0.5765823523875265,-0.0663904848776629,0.0403902893888622,6.5991990671622114,8.0000000000000000,0.0000000000000000,0.8248998833952764
6.6360760206826406,0.5086746601468181,1.2517979478679651,0.5810626693551796,-0.0704292902398584,0.0405571017849549,6.6991869204480325,8.0000000000000000,0.0000000000000000,0.8373983650560041
6.7358158784479851,0.5016365840980217,1.2517698419277203,0.5855467698548527,-0.0745009205592226,0.0407247877470268,6.7991747884197009,8.0000000000000000,0.0000000000000000,0.8498968485524626
6.8354953883369554,0.4937901852845926,1.2513861068947991,0.5898216379010141,-0.0785732590143899,0.0401184899721156,6.8991626410121265,8.0000000000000000,0.0000000000000000,0.8623953301265158
6.9351746157440406,0.4859400027996973,1.2510007072005453,0.5940955265526826,-0.0825236444993398,0.0395085111519457,6.9991505089837940,8.0000000000000000,0.0000000000000000,0.8748938136229742
7.0347890230662014,0.4773063119944709,1.2523633885950451,0.5934680088739798,-0.0864740020195829,0.0397491455859992,7.0991383620613835,8.0000000000000000,0.0000000000000000,0.8873922952576729
7.1344031180315852,0.4686688455981664,1.2537344936899590,0.5928168721659313,-0.0904725085489919,0.0399938323686809,7.1991262300330519,8.0000000000000000,0.0000000000000000,0.8998907787541315
7.2339452962805035,0.4592388216513906,1.2563119440941957,0.5884624434950259,-0.0944717974528562,0.0405055893748603,7.2991140823060965,8.0000000000000000,0.0000000000000000,0.9123892602882621
7.3334871180406580,0.4498048690232929,1.2588953743118629,0.5840896577294766,-0.0985726429581661,0.0410187689210089,7.3991019502777640,8.0000000000000000,0.0000000000000000,0.9248877437847205
7.4329486057732135,0.4395587572684361,1.2612869118664432,0.5791282366529202,-0.1026745552592636,0.0409247219160727,7.4990898012801050,8.0000000000000000,0.0000000000000000,0.9373862251600131
7.5324096842161863,0.4293085076870534,1.2636774717572563,0.5741638165694898,-0.1067565936471442,0.0408276377355048,7.5990776692517734,8.0000000000000000,0.0000000000000000,0.9498847086564717
7.6317842078964633,0.4182507351533061,1.2653640526943897,0.5697956572060584,-0.1108390914575950,0.0411734239293334,7.6990655199641980,8.0000000000000000,0.0000000000000000,0.9623831899955247
7.7311582786591417,0.4071887370709590,1.2670469499005859,0.5654306179132617,-0.1149902786880974,0.0415215589764761,7.7990533879358654,8.0000000000000000,0.0000000000000000,0.9748816734919832
7.8304375716711183,0.3953063106590770,1.2680995147781018,0.5619721794920993,-0.1191423950108441,0.0404514778587868,7.8990412375896693,8.0000000000000000,0.0000000000000000,0.9873801546987087
7.9297163556808608,0.3834194781513520,1.2691486944669874,0.5585186099548940,-0.1230795920019192,0.0393736836548039,7.9990291055613376,8.0000000000000000,0.0000000000000000,0.9998786381951672
8.0288990062226926,0.3707556636928800,1.2704896419343927,0.5560940977603428,-0.1270161757117307,0.0394734508568647,8.0990169566490664,8.0000000000000000,0.0000000000000000,1.0123771195811333
8.1280811272158449,0.3580875692497864,1.2718321965969253,0.5536752541010737,-0.1309733237207764,0.0395795791538549,8.1990048246207330,8.0000000000000000,0.0000000000000000,1.0248756030775916
8.2271604468271384,0.3446391987463248,1.2733969300029819,0.5522792174720993,-0.1349311304890819,0.0406662006584668,8.2989926751018555,8.0000000000000000,0.0000000000000000,1.0373740843877319
8.3262391859291451,0.3311864221007351,1.2749629180305393,0.5508889565337730,-0.1391055764141986,0.0417585160676487,8.3989805430735238,8.0000000000000000,0.0000000000000000,1.0498725678841905
8.4252027723205423,0.3169113276510219,1.2760692934474835,0.5504474835125386,-0.1432818196387362,0.0421527493564338,8.4989683911001510,8.0000000000000000,0.0000000000000000,1.0623710488875189
8.5241656925603344,0.3026314761415760,1.2771730100327305,0.5500114991731407,-0.1475351026480480,0.0425431416609553,8.5989562590718176,8.0000000000000000,0.0000000000000000,1.0748695323839772
8.6230042665804234,0.2875150681436470,1.2775070910980468,0.5504384164714283,-0.1517894148004615,0.0439204358879495,8.6989441058587378,8.0000000000000000,0.0000000000000000,1.0873680132323422
8.7218421041360799,0.2723937054788117,1.2778366138487807,0.5508704444708418,-0.1563181232072495,0.0453038072558452,8.7989319738304062,8.0000000000000000,0.0000000000000000,1.0998664967288008
8.8205397068790496,0.2563827080392979,1.2775828111046796,0.5519238756361891,-0.1608490758839394,0.0458785921989515,8.8989198172225770,8.0000000000000000,0.0000000000000000,1.1123649771528221
8.9192364598093139,0.2403663194781437,1.2773254734507615,0.5529810724592539,-0.1654927273186062,0.0464487293365737,8.9989076851942436,8.0000000000000000,0.0000000000000000,1.1248634606492804
9.0177811073847618,0.2234393913765332,1.2777129274844814,0.5535832769613486,-0.1701376934900738,0.0475438399155830,9.0988955267587368,8.0000000000000000,0.0000000000000000,1.1373619408448421
9.1163248124353089,0.2065068210922984,1.2781043769871452,0.5541826620913530,-0.1750003404397986,0.0486424227553659,9.1988833947304052,8.0000000000000000,0.0000000000000000,1.1498604243413006
9.2147001798891424,0.1886223333459690,1.2792990243612039,0.5542256894590720,-0.1798649963391665,0.0507936750080711,9.2988712331090060,8.0000000000000000,0.0000000000000000,1.1623589041386257
9.3130744812961233,0.1707318173051233,1.2804987582196654,0.5542651935292561,-0.1851578414776636,0.0529520068740914,9.3988591010806726,8.0000000000000000,0.0000000000000000,1.1748573876350841
9.4112550147265033,0.1518069808588117,1.2814767592283396,0.5546597933065159,-0.1904541109869613,0.0543588778435722,9.4988469332363579,8.0000000000000000,0.0000000000000000,1.1873558666545447
9.5094342948846595,0.1328754545298013,1.2824533260907396,0.5550566898078999,-0.1960282961325692,0.0557613336193356,9.5988348012080262,8.0000000000000000,0.0000000000000000,1.1998543501510033
9.6073977457689512,0.1128572645704162,1.2825266171520100,0.5563781247636622,-0.2016050224551940,0.0570551962217470,9.6988226286592170,8.0000000000000000,0.0000000000000000,1.2123528285824021
9.7053597718041260,0.0928319007384215,1.2825939450197519,0.5577056632834980,-0.2074379486745008,0.0583486764024716,9.7988104966308871,8.0000000000000000,0.0000000000000000,1.2248513120788609
9.8030830281080146,0.0716722724241822,1.2818275113654147,0.5596717647109710,-0.2132733393199406,0.0596193044190321,9.8987983193546185,8.0000000000000000,0.0000000000000000,1.2373497899193273
9.9008046763752553,0.0505050052067673,1.2810554625978143,0.5616421666523885,-0.2193603602544760,0.0608900887481219,9.9987861873262869,8.0000000000000000,0.0000000000000000,1.2498482734157859
9.9982630943596504,0.0281572880664368,1.2805564456471827,0.5623514812906125,-0.2254498765706945,0.0621232332648227,10.0987740050712773,8.0000000000000000,0.0000000000000000,1.2623467506339097
10.0957197048505858,0.0058014652648144,1.2800593034930903,0.5630521365640120,-0.2317834964255447,0.0633564202150441,10.1987618730429439,8.0000000000000000,0.0000000000000000,1.2748452341303680
10.1928872224719491,-0.0177789542019445,1.2802898585362559,0.5616960753476201,-0.2381196198200062,0.0648834985047076,10.2987496856149079,8.0000000000000000,0.0000000000000000,1.2873437107018635
