# x_m,y_m,w_tr_right_m,w_tr_left_m,psi,kappa,s,velocity,acceleration,time
-0.0129851716942566,-0.0541280684038169,1.9632934222676650,1.9990291289641253,-2.9926771630923552,0.4311115170946402,0.0000000000000000,3.7514110796552074,-2.3903711122134870,0.0000000000000000
-0.1118296866781771,-0.0689573272430898,2.0006066498209174,2.0047552526924468,-3.0357670666751595,0.4130693572991070,0.0999507131546776,3.6871732389216123,-2.5079984968963522,0.0268735847774326
-0.2115842905033885,-0.0752237461213410,2.0318453973199002,2.0227257591598584,-3.0752505315374070,-0.1096542895737545,0.1999019462130175,3.6185482460889182,0.0000000000000000,0.0542360385100076
-0.3112919485562196,-0.0822095248707796,2.0627434031897662,2.0391851114132487,-3.0138468109626011,-0.6491576670614718,0.2998540256266866,3.6185482460889182,0.0000000000000000,0.0818581876748561
-0.4095271199698280,-0.1006485729473758,2.0930339603846249,2.0458363861762705,-2.9454820934871311,-0.4488779890098066,0.3998047504696414,3.6185482460889182,2.6224403558926728,0.1094799624987750
-0.5073506105568452,-0.1211593117023704,2.0513634791310986,2.0502408188296029,-2.9241154989137144,-0.1331729852942151,0.4997553668504515,3.6902737661669431,6.6864342430124317,0.1368306398618870
-0.6047085916007982,-0.1437781950779472,2.0707134766932747,2.0518355632952350,-2.9188606064914295,-0.1141190972262510,0.5997063066064771,3.8671373445575834,6.7933772890572754,0.1632817454830137
-0.7023116132034212,-0.1653159994002556,2.0429911620599257,2.0544411788574815,-2.9013028560628054,-0.1197996615834212,0.6996574288662503,4.0389061154751467,6.5457365598764721,0.1885664843704367
-0.7988156642153266,-0.1913390625486575,2.0901264908987005,2.0525295308403080,-2.8949123823498422,0.0183850350308804,0.7996085753195760,4.1977696883827180,8.1760323272034672,0.2128362623326848
-0.8961350936340761,-0.2141224438135321,2.0883857253357569,2.0540942688580071,-2.9049780595586379,0.0100992368836342,0.8995593322164179,4.3881284844155157,8.3055324112011188,0.2361188018842264
-0.9931433709501504,-0.2381975966733841,2.0895231750990897,2.0543063966205586,-2.8969312383773711,-0.0946156423316940,0.9995104145169994,4.5733975885443234,6.5210224889552988,0.2584255120331084
-1.0900840812578860,-0.2625443203706219,2.1118282230514409,2.0571668825516602,-2.8860641663552604,-0.1075066331388990,1.0994617240119628,4.7137601738885069,6.1112526047173938,0.2799501403535775
-1.1865461062730807,-0.2887219818318982,2.1173750925802781,2.0636177188009883,-2.8754404195970169,-0.1421584717702223,1.1994126731300838,4.8416098534703922,3.7270128192154739,0.3008705126326084
-1.2829473091767127,-0.3151227005513647,2.0864655234112774,2.0694610144252983,-2.8576464196759259,-0.1199489486584015,1.2993636104452067,4.9179490463559832,-5.5629267373726634,0.3213531877905813
-1.3784169871221454,-0.3447159948189190,2.1225003493085639,2.0716258768379396,-2.8514623803375518,-0.0622911022606773,1.3993147108524093,4.8035592558834566,-7.0571583455647096,0.3419160669858144
-1.4744844532882182,-0.3723070086757284,2.0852664554200402,2.0761497894227690,-2.8451942913585908,-0.0461194518469927,1.4992658094017308,4.6544000758671595,-7.4972385353800366,0.3630519367952316
-1.5695755818457222,-0.4030947495484831,2.1083010246419547,2.0766121454191859,-2.8422430039026176,-0.0300654323185425,1.5992168360016996,4.4905151920108297,-6.6609420624873792,0.3849113031583191
-1.6654785719625891,-0.4312523414990412,2.1021143683977592,2.0806373769876290,-2.8391841458305267,-0.0976498425064329,1.6991679915618532,4.3397222235012194,-4.1645831073540718,0.4075496878034635
-1.7603792320190621,-0.4626211376174340,2.1488787000585550,2.0804462385696820,-2.8227226220145907,-0.2408473522134803,1.7991186626404985,4.2427212051305832,-4.1176748272675683,0.4308415794214614
-1.8553032587637912,-0.4939202689465543,2.1188539625641187,2.0802566599453769,-2.7910383527392479,-0.1984002377249277,1.8990696830224414,4.1445809949006716,-4.9957445015637392,0.4546754697471421
-1.9480280263743524,-0.5312361917445787,2.1354877369628320,2.0753139113481271,-2.7830618566166803,0.0666337175723165,1.9990214745156443,4.0222983974022384,-6.0046143494732052,0.4791528219136024
-2.0424402140597553,-0.5640454300904011,2.1273310113702792,2.0737919506808735,-2.8043585871907082,-0.1665972141548931,2.0989719987982949,3.8702139079196471,0.0000000000000000,0.5044807581691479
-2.1366700963449556,-0.5973793603899825,2.1114433943007986,2.0748793184412362,-2.7497586368670648,-0.5674779447487933,2.1989240954481404,3.8702139079196471,0.0000000000000000,0.5303067458349234
-2.2269423800161432,-0.6402818059647150,2.1327261379020404,2.0713889508192365,-2.6909194006840913,-0.3885592873266821,2.2988726073705510,3.8702139079196471,2.6799430747236745,0.5561318072657361
-2.3166067842064417,-0.6844481482290374,2.1278177998017149,2.0613779383732052,-2.6720854969386290,-0.1266603070115313,2.3988244516147192,3.9388178681719599,6.5349557470166655,0.5817308436405615
-2.4052017231859857,-0.7307209779709366,2.1208668800891002,2.0460332747429284,-2.6655996225131462,-0.0740463745069350,2.4987756296223442,4.1012972641488368,7.2544926467288313,0.6065939647184742
-2.4942851771080337,-0.7760464092011067,2.1245011493000159,2.0337117946368286,-2.6572834453699805,-0.0522840394161301,2.5987269001439466,4.2744392337445936,7.5447271642230822,0.6304608259901344
-2.5820980741289934,-0.8237862102426112,2.1439611769671640,2.0234304625337440,-2.6551479266533429,-0.0452202435113291,2.6986778555505664,4.4473628297753960,7.6055871693448207,0.6533806204726708
-2.6709869869041003,-0.8694916295007460,2.1421030775527785,2.0137518236095606,-2.6482438253450740,-0.1218029622305550,2.7986289644183646,4.6151283711291544,-2.8572319575130813,0.6754388176398739
-2.7581321589153811,-0.9184392869421709,2.1512336376959271,1.9994426290762071,-2.6307992870225756,0.0410746270759341,2.8985797231642532,4.5528282284606760,-0.7180633901542559,0.6972431876017386
-2.8453727239920759,-0.9672175317360565,2.1615765543140659,1.9883126030606677,-2.6564547218986587,0.3780446507520062,2.9985308780353863,4.5370367364211610,-0.5160354922962184,0.7192349675142651
-2.9349132027019591,-1.0116309895311864,2.1479131742803061,1.9785051537025979,-2.7063709439742794,0.2592882058060888,3.0984811284648615,4.5256542725073654,-3.1049024954479356,0.7412924889129323
-3.0265807983219610,-1.0514713605004951,2.1157036204828228,1.9745805491738908,-2.7082867595565832,-0.1895857874143823,3.1984321326905536,4.4565536403569084,-2.9460587856728782,0.7635478197169639
-3.1162918540313798,-1.0955418952212344,2.1049312687223019,1.9726386503775444,-2.6684722862423973,-0.2881878946849676,3.2983835486238475,4.3899823297226339,-2.6068805717899202,0.7861445550428239
-3.2045004338505287,-1.1425480048154453,2.1155566975774205,1.9672443498465177,-2.6506771222520245,-0.0002986576798216,3.3983351763889527,4.3302218121243747,-1.3217500284349428,0.8090687036382568
-3.2925852383001426,-1.1897821195612146,2.1238382362386412,1.9562852697078370,-2.6684125840982018,0.3882946957059820,3.4982851357223272,4.2996050073251828,0.0000000000000000,0.8322325425945870
-3.3824052553565651,-1.2336304707728643,2.1181450936681205,1.9491220368064139,-2.7282978199722097,0.4597924182878944,3.5982366908277692,4.2996050073251828,0.0000000000000000,0.8554792257050485
-3.4755035959429006,-1.2700017113015110,2.0912598565106633,1.9546277585811229,-2.7603261845689429,0.1823083528020863,3.6981875195262948,4.2996050073251828,1.4954840772565814,0.8787257398681497
-3.5679459553462771,-1.3080103930158404,2.0625740098615988,1.9580664400116490,-2.7647416362183868,0.0811964920847979,3.7981387561255695,4.3342305181760263,-6.8654683812815618,0.9018791196850469
-3.6613616072604942,-1.3435579845755308,2.0205606320867853,1.9580150352187273,-2.7765575095570467,-0.0938677162003556,3.8980893203473523,4.1729053797056821,-1.8783661974842096,0.9253771724778018
-3.7546768301545472,-1.3793719000882589,1.9847841596564517,1.9611663801420538,-2.7459772554569382,-0.3886471989819367,3.9980411455839113,4.1276684760496716,-0.6256462842894948,0.9494602845549881
-3.8457445812292708,-1.4205626538818690,1.9823360127336480,1.9632419763513795,-2.6988662037525124,-0.4655915053763098,4.0979912005308377,4.1124907643896380,-0.3414490184720042,0.9737195378122337
-3.9352767943524452,-1.4649971497970968,1.9964937139831587,1.9633951334025939,-2.6529044652105744,-0.3030747522547033,4.1979433971749032,4.1041836128898517,-3.2179420835603771,0.9980486500672964
-4.0221793631552378,-1.5143737857516755,1.9980242819007266,1.9586009564104530,-2.6382807341035202,-0.1457346638078618,4.2978939281525577,4.0250531783442556,-1.8172522642230657,1.0226390350061219
-4.1103724529031194,-1.5614066842271459,1.9388018758828123,1.9553372058107614,-2.6237719467952925,-0.4219497149122428,4.3978444890228285,3.9796711324424110,0.0000000000000000,1.0476119277603630
-4.1958070218582737,-1.6132845505450706,1.9031035592039034,1.9448989152128136,-2.5539319555966236,-0.5366913010277046,4.4977963703770758,3.9796711324424110,0.0000000000000000,1.0727275410931925
-4.2765926273177373,-1.6721380624506339,1.9214899332564281,1.9199691671972798,-2.5164862187189874,-0.1760266724114122,4.5977466075607385,3.9796711324424110,5.7121278794124342,1.0978427412836969
-4.3579051347168569,-1.7302620526097658,1.9079471327089161,1.8964965754697709,-2.5187440767220783,-0.2353116362309582,4.6976972058158299,4.1206363003921114,-0.2534140747512529,1.1225209646928340
-4.4389591930899224,-1.7887526820402129,1.8716778253712347,1.8763973505510254,-2.4694462087858620,-0.4674914520537540,4.7976517660415352,4.1144846257235734,0.0000000000000000,1.1467961541217413
-4.5141527032355135,-1.8545966533819862,1.8690716021672247,1.8514833429580784,-2.4252915962344437,-0.0447089922666156,4.8975992148837708,4.1144846257235734,-3.9711168835598096,1.1710877624114817
-4.5897306495888444,-1.9200059722418135,1.8504623615174920,1.8294994249322676,-2.4605089052775089,0.2806844378815222,4.9975512282136361,4.0168571644950992,-3.8557112580528470,1.1956721461229374
-4.6693736088881055,-1.9803962738522107,1.8127261118965692,1.8171109579592646,-2.4814009622160316,-0.1684069630727961,5.0975011631537779,3.9197430146853893,-0.9109301593426272,1.2208592369889564
-4.7476205321407079,-2.0425935895883427,1.8263983259268601,1.8046704330667476,-2.4268434506268508,-0.4998636306138788,5.1974565886357329,3.8964445944799508,-0.6997534758780177,1.2464357534391877
-4.8202111151120421,-2.1112961448088239,1.8652224096444450,1.7727548291654058,-2.3814769324738458,-0.3780503978155010,5.2974037438225690,3.8784537820321918,-2.6937509270699129,1.2721459686334531
-4.8924984465560923,-2.1803249290871398,1.8597323059099102,1.7549734733635285,-2.3512714405620017,-0.2913361285637004,5.3973558891034195,3.8084001065190063,-4.1260985091617375,1.2981519645142174
-4.9608111152536063,-2.2532873668014837,1.8471467581237495,1.7363176827582067,-2.3232380178660823,-0.1334855972859355,5.4973065670490735,3.6985265559154019,-6.6260401293951654,1.3247808853602994
-5.0291161151104689,-2.3262578407833225,1.8301682770466066,1.7130400841960296,-2.3245874051652580,0.0060902000290964,5.5972578705852465,3.5149019884456756,-8.4247217717954950,1.3524934503137036
-5.0976258599116093,-2.3990360943901083,1.8110598071856658,1.6877215594994712,-2.3244554646153106,0.0042349246746624,5.6972091553732422,3.2665597282515200,-5.7496667714851410,1.3819712499278773
-5.1659109712742666,-2.4720239182837753,1.7841547347306599,1.6543927606099404,-2.3254339736666267,-0.2888686984850611,5.7971595374162508,3.0856198206154266,-2.0326393971786860,1.4134408837044721
-5.2345688979871055,-2.5446742175764903,1.7568626096430588,1.6202620648195603,-2.2667076484480670,-0.7095539413095282,5.8971194138058634,3.0190536450353944,-1.8774799863771532,1.4461895235627895
-5.2938244795682969,-2.6251545247146484,1.7229250253544521,1.5684040233311436,-2.1835931628864209,-0.6325967239885957,5.9970609156235639,2.9562490714855341,-2.5128678547793721,1.4796410511452753
-5.3495116101640292,-2.7081564156763114,1.6968715887967269,1.5606414008376321,-2.1402557749575291,-0.2865770474343498,6.0970127561128615,2.8700308428091676,-6.0302909750587270,1.5139517406279646
-5.4015820576822309,-2.7934715152909386,1.6655930095847027,1.4925366331069130,-2.1263058905048897,-0.0802588524576939,6.1969627322359182,2.6517206038215066,-5.3726197218088894,1.5501540134354612
-5.4549310426621744,-2.8779928350119390,1.6259395431740784,1.4692768340087148,-2.1242120462453240,-0.5249363287177061,6.2969125580775360,2.4408271855490735,-0.0100203204395512,1.5894073812880865
-5.5066427787553787,-2.9635236493098112,1.5895573389417037,1.4851512577603527,-2.0213722041737263,-1.4255374348683902,6.3968606638336247,2.4404168343996906,0.0000000000000000,1.6303592801678097
-5.5416124167865268,-3.0571733905546949,1.5663054181058071,1.5089444176730875,-1.8392273721949302,-1.4272199291069014,6.4968264060619658,2.4404168343996906,0.0000000000000000,1.6713218488647805
-5.5594543538109154,-3.1555170516995066,1.5494598535918880,1.4735108371740846,-1.7360498442307257,-0.8245720550923885,6.5967754450976051,2.4404168343996906,3.5891503647435767,1.7122775731602269
-5.5744934152273400,-3.2543319133322832,1.5387111898913555,1.4733267219549957,-1.6743939513799688,-0.9242628936994153,6.6967281851690599,2.5832392751331748,2.3322780364482849,1.7520704004924104
-5.5801044764170387,-3.3541335179023446,1.5182368090868155,1.4625456027661661,-1.5512786439126351,-1.1649718825491790,6.7966873982633684,2.6719637922456192,0.1828108007230897,1.7901123987987353
-5.5706031561476728,-3.4536263226922155,1.4931442616219344,1.4190854229272987,-1.4415106378423084,-0.8503260203132774,6.8966328498448011,2.6787931467614396,2.3981176854999005,1.8274698989508469
-5.5543474333019169,-3.5522480602305517,1.3901624138752744,1.3847329751940840,-1.3813002424174852,-0.3556939110055131,6.9965853167494174,2.7668263914316462,5.7770463439409188,1.8641792085908597
-5.5329616091889084,-3.6498832055528601,1.3924859180444604,1.3450657583312131,-1.3704065963681362,0.2649724389620435,7.0965351795562306,2.9681910752735678,6.1655508783827546,1.8990352010571685
-5.5145612310214114,-3.7481274542466316,1.3965032773752131,1.3131938750526810,-1.4342688644286441,0.6199651799989198,7.1964876998751830,3.1690192423259016,2.2738862521277210,1.9316078244956456
-5.5057862966204567,-3.8476914334141905,1.3498426428197106,1.2981942747501469,-1.4943391453927797,0.2154755896683496,7.2964376144395242,3.2399432759679949,6.2381026519389229,1.9627984935872629
-5.4992932039925817,-3.9474320110864567,1.3082649440653751,1.2922212536273392,-1.4773427835146196,-0.2821567564883246,7.3963893182082519,3.4269885334184083,3.9453485331213525,1.9927828121993132
-5.4871395178656126,-4.0466401536697303,1.3175339650592475,1.2805180424339615,-1.4379355782436440,-0.2733637291361993,7.4963391438273899,3.5401870295177420,-4.9499643581145696,2.0214744461954046
-5.4728138189920630,-4.1455597283891441,1.2987194081515203,1.2681783767720467,-1.4226970040827704,-0.1109811666476824,7.5962906716340486,3.3975595952980036,-7.1900506339442680,2.0502882767406541
-5.4576424475575038,-4.2443527202483713,1.2622103560985380,1.2641838702194554,-1.4157501495280544,-0.0009527097411892,7.6962417884447314,3.1790099122250886,-7.3567248649666395,2.0806844024704425
-5.4419439190686152,-4.3430630745029788,1.2738647676371768,1.2663024875218136,-1.4225065555058851,-0.1323927441866148,7.7961926655483698,2.9386190321813150,-5.6560300726778161,2.1133607475093248
-5.4281087960365300,-4.4420524873421066,1.2595031052461185,1.2771713637473412,-1.3892845172195027,-0.3789522608372343,7.8961442262342754,2.7394933382282796,-5.5716869759688636,2.1485666589691910
-5.4058909055547959,-4.5395031879761909,1.2911595325393301,1.2891037493029631,-1.3467528930043735,-0.2839801960619168,7.9960955829610967,2.5280483391712725,-4.4363499158101209,2.1865165653384802
-5.3836960845594124,-4.6369571386039476,1.2965971787369752,1.3070564849441735,-1.3325166611147949,-0.7382807012080397,8.0960449830191976,2.3461047248834759,0.0000000000000000,2.2275285724480618
-5.3587080560298164,-4.7337559412508643,1.3269852413925309,1.3256178695751579,-1.1991547484261140,-1.5442732101081929,8.1960170279301252,2.3461047248834759,0.0000000000000000,2.2701405001470238
-5.3116177597530942,-4.8218905277533111,1.3781068821905658,1.2760491187175440,-1.0238194975543520,-1.2421526524656517,8.2959430072417479,2.3461047248834759,1.6629342030622229,2.3127327929171537
-5.2549137686059630,-4.9042029750930825,1.3962146929612871,1.2980144964183791,-0.9508740507982112,-0.6427881320491763,8.3958964043779964,2.4159137455093109,4.7482775746411052,2.3547122172968344
-5.1954953943926023,-4.9845743601439327,1.4122786465779502,1.2748050743699944,-0.8953236440279770,-0.7271023592048006,8.4958469057731918,2.6049615495125282,3.5660108700654667,2.3945261921606580
-5.1300207858808067,-5.0600852324890662,1.4323444658142048,1.3079519465029876,-0.8055302397131507,-0.6731435212356502,8.5957909711402554,2.7383622699404984,-0.0278552705113519,2.4319351416251114
-5.0572014704561674,-5.1285517597672614,1.4553810326765353,1.3258918907185038,-0.7607651863958749,-0.6527820776783239,8.6957425496993199,2.7373453499542362,-0.5913073311389068,2.4684424153867415
-4.9852245796942629,-5.1979180362896225,1.4856978678846293,1.3498622743097199,-0.6750303963230095,-1.0723878896854873,8.7957043079988200,2.7156662762357269,-0.5875877281858112,2.5051053697877186
-4.9017952168564278,-5.2529505518185609,1.5109888232680393,1.3556488005355170,-0.5463874209499178,-1.0878649076126461,8.8956494747102219,2.6939543828695038,-0.1340649248439589,2.5420562663512989
-4.8145428222898667,-5.3017174022573084,1.5171784255966607,1.3515668683996149,-0.4575650184633462,-0.8575739256280598,8.9956053952918165,2.6889754649347117,-2.2665676099094081,2.5791943764169045
-4.7227037537811096,-5.3411387203155982,1.5094602272884075,1.3448435029895824,-0.3749599556988754,-0.8916005901322127,9.0955476527308452,2.6033703700925441,-0.0846148692800964,2.6169629805687959
-4.6286268016430387,-5.3748902906093834,1.5169869581745121,1.3396813670682386,-0.2793425742794087,-1.2447647257712586,9.1954958464157990,2.6001198197754123,0.0000000000000000,2.6553788091907338
-4.5309740495062449,-5.3961349812927226,1.5011865276972394,1.3249838182542686,-0.1261499615311870,-1.2572805646686507,9.2954328109590598,2.6001198197754123,0.0000000000000000,2.6938143319628698
-4.4310882199200865,-5.3999428099995832,1.4538406779281474,1.2951257789302140,-0.0280180377160668,-0.8281688967284921,9.3953911948574405,2.6001198197754123,2.9010622449672669,2.7322580925688769
-4.3311539776957027,-5.4017350130389552,1.4099241149920416,1.2634717726887654,0.0394082021491389,-0.7619021638749655,9.4953415063161657,2.7093444275470357,2.9072211836612425,2.7699079595998604
-4.2316717611325823,-5.3920800951762073,1.3205655898505535,1.2362921001024800,0.1242861614370274,-0.4965074716069108,9.5952911378875125,2.8145512252376732,4.5668174575367617,2.8060960550505629
-4.1328718586348439,-5.3769636096678202,1.3011137635404091,1.2121898611986250,0.1386596799090356,-0.1754030288981823,9.6952407695411011,2.9723058464610999,6.9503840422132530,2.8406397219893584
-4.0337077684549643,-5.3644531876479160,1.2389638802966971,1.1927325028156370,0.1593491841886638,-0.2231411810783521,9.7951908943050014,3.1974967629787088,6.2186077892102913,2.8730395023683863
-3.9356158698573145,-5.3452622514469939,1.2281866837273721,1.1742507301125202,0.1832659760004345,-0.0592514752220974,9.8951424455824046,3.3863113471584310,7.8205571394852571,2.9034023408975069
-3.8371624910049325,-5.3280243716158058,1.1947193964332750,1.1560025857798604,0.1711937081891266,-0.0762972978990774,9.9950934951443031,3.6097715063968598,7.5058118495353492,2.9319757731035323
-3.7386360162353283,-5.3112072010058107,1.1588172882098930,1.1401759233067996,0.1985179931636849,-0.2649174148922218,10.0950449006264229,3.8119395608647140,4.6505159823998321,2.9589106415122535
