# x_m,y_m,w_tr_right_m,w_tr_left_m,psi,kappa,s,velocity,acceleration,time
0.0060664886373779,0.3491520952921225,1.3491575839515466,0.5508424160484537,-0.0001094898253762,-0.0001192696936425,0.0002600769782317,8.0000000000000000,0.0000000000000000,0.0000000000000000
0.1060365598755011,0.3491411495864361,1.3491838617355372,0.5508161382644619,-0.0000975664255347,-0.0001769325046762,0.1000404989225349,8.0000000000000000,0.0000000000000000,0.0124962589796681
0.2060066313463597,0.3491325878470156,1.3491586066545640,0.5508413933454349,-0.0000741139149705,-0.0002306608617186,0.1996448108516992,8.0000000000000000,0.0000000000000000,0.0249925179593538
0.3059767029881881,0.3491263312396432,1.3491759289389877,0.5508240710610126,-0.0000514480597025,-0.0002228084833006,0.2992670906891125,8.0000000000000000,0.0000000000000000,0.0374887769390553
0.4059467747447025,0.3491223013145721,1.3491728429390120,0.5508271570609873,-0.0000295655548073,-0.0002149868815832,0.3989072607819564,8.0000000000000000,0.0000000000000000,0.0499850359187729
0.5059168465648591,0.3491204198983683,1.3491464290029704,0.5508535709970288,-0.0000084635517104,-0.0002071936654751,0.4985652696663982,8.0000000000000000,0.0000000000000000,0.0624812948985054
0.6058869184026573,0.3491206091108272,1.3491368549005753,0.5508631450994254,0.0000118607764366,-0.0001994277340828,0.5982410906631769,8.0000000000000000,0.0000000000000000,0.0749775538782526
0.7058569902169283,0.3491227913437130,1.3491969568044719,0.5508030431955279,0.0000314100580951,-0.0001916876173607,0.6979347204454911,8.0000000000000000,0.0000000000000000,0.0874738128580137
0.8058270619711355,0.3491268892423543,1.3491739409315013,0.5508260590684984,0.0000501868261926,-0.0001839723561833,0.7976461775805960,8.0000000000000000,0.0000000000000000,0.0999700718377882
0.9057971336331742,0.3491328257049480,1.3491965573830333,0.5508034426169671,0.0000681935174229,-0.0001762804586914,0.8973755010464173,8.0000000000000000,0.0000000000000000,0.1124663308175756
1.0057672051751751,0.3491405238640146,1.3491735591609981,0.5508264408390026,0.0000854323664308,-0.0001686102371108,0.9971227487248756,8.0000000000000000,0.0000000000000000,0.1249625897973754
1.1057372765733136,0.3491499070645454,1.3491630444651574,0.5508369555348428,0.0001019054724563,-0.0001609605941905,1.0968879958733191,8.0000000000000000,0.0000000000000000,0.1374588487771869
1.2057073478076186,0.3491608988587830,1.3491877445045117,0.5508122554954881,0.0001176148507596,-0.0001533295957250,1.1966713335753880,8.0000000000000000,0.0000000000000000,0.1499551077570099
1.3056774188617846,0.3491734229946499,1.3492447735393283,0.5507552264606719,0.0001325622138555,-0.0001457135028665,1.2964728671729675,8.0000000000000000,0.0000000000000000,0.1624513667368437
1.4056474897229898,0.3491874033667892,1.3494349076507031,0.5505650923492958,0.0001467488294584,-0.0001381156757656,1.3963633956199895,8.0000000000000000,0.0000000000000000,0.1749476257166877
1.5056175603817261,0.3492027639765903,1.3492727469133265,0.5507272530866737,0.0001601770819122,-0.0001305393550607,1.4961922781012371,8.0000000000000000,0.0000000000000000,0.1874438846965416
1.6055876308315711,0.3492194291954229,1.3493282413847327,0.5506717586152665,0.0001728488868649,-0.0001229761267756,1.5960396897635807,8.0000000000000000,0.0000000000000000,0.1999401436764051
1.7055577010690557,0.3492373234076919,1.3492874380920079,0.5507125619079914,0.0001847649463687,-0.0001154216904689,1.6959057755918070,8.0000000000000000,0.0000000000000000,0.2124364026562774
1.8055277710934809,0.3492563711251357,1.3492873014573135,0.5507126985426863,0.0001959263162408,-0.0001078774127344,1.7957906872121208,8.0000000000000000,0.0000000000000000,0.2249326616361582
1.9054978409067420,0.3492764969432602,1.3493446810337137,0.5506553189662861,0.0002063339717704,-0.0001003423820815,1.8956945812454979,8.0000000000000000,0.0000000000000000,0.2374289206160469
2.0054679105131501,0.3492976255688040,1.3492965634341429,0.5507034365658571,0.0002159887865312,-0.0000928157072486,1.9956176176514626,8.0000000000000000,0.0000000000000000,0.2499251795959432
2.1054379799192695,0.3493196817719360,1.3491931766513889,0.5508068233486122,0.0002248915576133,-0.0000852960810786,2.0955599580652859,8.0000000000000000,0.0000000000000000,0.2624214385758468
2.2054080491337342,0.3493425904187659,1.3492331058954967,0.5507668941045023,0.0002330428972372,-0.0000777808282602,2.1955217641285358,8.0000000000000000,0.0000000000000000,0.2749176975557568
2.3053781181670945,0.3493662764018707,1.3493022493853866,0.5506977506146133,0.0002404430675911,-0.0000702695966329,2.2955031958164724,8.0000000000000000,0.0000000000000000,0.2874139565356730
2.4053481870316515,0.3493906646397831,1.3493403315102213,0.5506596684897794,0.0002470926104843,-0.0000627613213763,2.3955044097619820,8.0000000000000000,0.0000000000000000,0.2999102155155953
2.5053182557412597,0.3494156801334100,1.3492522398258684,0.5507477601741324,0.0002529915752045,-0.0000552526565224,2.4955255575777464,8.0000000000000000,0.0000000000000000,0.3124064744955227
2.6052883243112075,0.3494412478111392,1.3493317883548490,0.5506682116451512,0.0002581398345680,-0.0000477439227986,2.5955667841810697,8.0000000000000000,0.0000000000000000,0.3249027334754548
2.7052583927580187,0.3494672926484494,1.3494176644286007,0.5505823355713999,0.0002625375019887,-0.0000402342994555,2.6956282261177411,8.0000000000000000,0.0000000000000000,0.3373989924553916
2.8052284610992908,0.3494937395964048,1.3494435513127598,0.5505564486872416,0.0002661842861820,-0.0000327219629411,2.7957100098914518,8.0000000000000000,0.0000000000000000,0.3498952514353322
2.9051985293535427,0.3495205135722452,1.3494957464508559,0.5505042535491443,0.0002690799359606,-0.0000252055213365,2.8957412835356791,8.0000000000000000,0.0000000000000000,0.3623915104152764
3.0051685975400311,0.3495475394768127,1.3495089611680111,0.5504910388319894,0.0002712238817395,-0.0000176811296723,2.9958539597297360,8.0000000000000000,0.0000000000000000,0.3748877693952238
3.1051386656786053,0.3495747421134645,1.3494175382980615,0.5505824617019391,0.0002726151035677,-0.0000101462418726,3.0959872547297258,8.0000000000000000,0.0000000000000000,0.3873840283751737
3.2051087337895443,0.3496020461791140,1.3494375391628879,0.5505624608371124,0.0002732525227973,-0.0000026023050176,3.1961412437940466,8.0000000000000000,0.0000000000000000,0.3998802873551256
3.3050788018933881,0.3496293762614534,1.3495686646422074,0.5504313353577934,0.0002731354088068,0.0000049510078579,3.2963159843428875,8.0000000000000000,0.0000000000000000,0.4123765463350792
3.4050488700107433,0.3496566569113157,1.3496404927289003,0.5503595072710991,0.0002722626175748,0.0000125169240856,3.3965115143363627,8.0000000000000000,0.0000000000000000,0.4248728053150340
3.5050189381621566,0.3496838124876573,1.3496748273265171,0.5503251726734814,0.0002706327732067,0.0000200964865103,3.4967278506685644,8.0000000000000000,0.0000000000000000,0.4373690642949895
3.6049890063679140,0.3497107672662144,1.3496919047872933,0.5503080952127057,0.0002682445231745,0.0000276909080385,3.5969649875751943,8.0000000000000000,0.0000000000000000,0.4498653232749452
3.7049590746478946,0.3497374453355188,1.3497083520626767,0.5502916479373233,0.0002650962490749,0.0000353027225844,3.6972228950600790,8.0000000000000000,0.0000000000000000,0.4623615822549005
3.8049291430213836,0.3497637706477224,1.3497283495881791,0.5502716504118216,0.0002611860917487,0.0000429333395383,3.7975015173394988,8.0000000000000000,0.0000000000000000,0.4748578412348551
3.9048992115069208,0.3497896669196361,1.3497507827341944,0.5502492172658062,0.0002565121509990,0.0000505823775444,3.8978007713078435,8.0000000000000000,0.0000000000000000,0.4873541002148084
4.0048692801221026,0.3498150577234860,1.3497753697337282,0.5502246302662722,0.0002510726439149,0.0000582528850605,3.9981205450243906,8.0000000000000000,0.0000000000000000,0.4998503591947598
4.1048393488834156,0.3498398664196068,1.3498028381427531,0.5501971618572473,0.0002448650607902,0.0000659473793760,4.0984606962246124,8.0000000000000000,0.0000000000000000,0.5123466181747087
4.2048094178060804,0.3498640160784329,1.3498353609937062,0.5501646390062946,0.0002378871154072,0.0000736652433152,4.1988210508565338,8.0000000000000000,0.0000000000000000,0.5248428771546547
4.3047794869038345,0.3498874296031918,1.3498709878184094,0.5501290121815914,0.0002301364214576,0.0000814086745518,4.2992014016435558,8.0000000000000000,0.0000000000000000,0.5373391361345973
4.4047495561887828,0.3499100295871984,1.3498950918364470,0.5501049081635531,0.0002216102533206,0.0000891809852139,4.3993840344623889,8.0000000000000000,0.0000000000000000,0.5498353951145359
4.5047196256711803,0.3499317383887183,1.3499130279325640,0.5500869720674373,0.0002123055624605,0.0000969805852382,4.4997938685022270,8.0000000000000000,0.0000000000000000,0.5623316540944688
4.6046896953593439,0.3499524779915412,1.3498892329890451,0.5501107670109564,0.0002022199411740,0.0001048251181273,4.6002229635208600,8.0000000000000000,0.0000000000000000,0.5748279130744017
4.7046597652590743,0.3499721702725352,1.3498022434813643,0.5501977565186357,0.0001913468132810,0.0001126446338990,4.7006709771401098,8.0000000000000000,0.0000000000000000,0.5873241720543068
4.8046298353750458,0.3499907359006471,1.3498972752682512,0.5501027247317484,0.0001796977568875,0.0001365650735624,4.8011375273638954,8.0000000000000000,0.0000000000000000,0.5998204310342943
4.9045999057012057,0.3500080990676712,1.3499760688258751,0.5500239311741258,0.0001640419728521,0.0002352877917944,4.9016221913389222,8.0000000000000000,0.0000000000000000,0.6123166900135454
5.0045699764181837,0.3500235344761304,1.3499996634176465,0.5500003365823544,0.0001326542819753,0.0003968265270241,5.0021244994048235,8.0000000000000000,0.0000000000000000,0.6248129490021196
5.1045400474819953,0.3500346219837728,1.3499860215698503,0.5500139784301501,0.0000847004200597,0.0009077144844836,5.1026439198527695,8.0000000000000000,-3.8005186180621400,0.6373092079619520
5.2045101183249569,0.3500404694901772,1.3499996334609405,0.5500003665390603,-0.0000488342815765,0.0031359554708579,5.2031798787056474,7.9523659226499852,-8.0699381022738521,0.6498427809126623
5.3044801860041471,0.3500248580507420,1.3499826518139575,0.5500173481860431,-0.0005423029555418,0.0069785086881091,5.3037315689619309,7.8502623670517320,-7.8927622437401252,0.6624951153301325
5.4044502041708187,0.3499320413800624,1.3498848034352207,0.5501151965647794,-0.0014441182169467,0.0101124484044637,5.4042974761451834,7.7490992625985093,-7.7380759354467310,0.6753123143447686
5.5044200665423473,0.3497361210262444,1.3496522549150443,0.5503477450849555,-0.0025641870586040,0.0130240340497448,5.5048760745914329,7.6486199825781824,-7.4480523766111224,0.6882973613846987
5.6043896181119148,0.3494193581986892,1.3492655339178199,0.5507344660821808,-0.0040481449884227,0.0184512647187117,5.6054656927170461,7.5506438963869709,-7.0128219999430188,0.7014519528452640
5.7043584555632130,0.3489267370174773,1.3486796965849448,0.5513203034150562,-0.0062533348567397,0.0267429579213072,5.7060635544628084,7.4572165652648117,-6.5412709401813851,0.7147743116792566
5.8043256169378825,0.3481690751509664,1.3479379510104492,0.5520620489895517,-0.0093951342345071,0.0360708858044708,5.8063309833711418,7.3690037836776128,-6.1380827338754003,0.7282598838859252
5.9042893307034001,0.3470483043387463,1.3468576054064199,0.5531423945935803,-0.0134653488111836,0.0445015292682238,5.9069240636888063,7.2852569306241435,-5.8434580561932510,0.7419036968947137
6.0042469441943842,0.3454769020316845,1.3453028520168921,0.5546971479831087,-0.0182927682596543,0.0511792433527964,6.0075079400722062,7.2046254556680847,-5.6256717458637153,0.7557022857064535
6.1041951276277331,0.3433910659778333,1.3432303353650414,0.5567696646349589,-0.0236981221410497,0.0566015079552857,6.1080742706952273,7.1261372254726165,-5.4383325723721638,0.7696540827079719
6.2041298728632643,0.3407391650350370,1.3405820623263740,0.5594179376736262,-0.0296096664472656,0.0616097938084055,6.2086137203964702,7.0494320592950777,-5.2615494081523604,0.7837586202949550
6.3040463654125398,0.3374718075183807,1.3372708059556138,0.5627291940443861,-0.0360163735894321,0.0665765666718672,6.3091118513483204,6.9744174818836511,-5.0911517238290296,0.7980157471586118
6.4039388775616271,0.3335396559883306,1.3333051215043312,0.5666948784956685,-0.0429209702392370,0.0715775045174568,6.4094294629578998,6.9010561231054020,-4.9268528184794640,0.8124253273003472
6.5038006695777852,0.3288928902722242,1.3286206151943687,0.5713793848056312,-0.0503275597717996,0.0766120351615038,6.5094782745789495,6.8293119849453898,-4.7685906560911047,0.8269871867273056
6.6036239158986003,0.3234815018752312,1.3231694166143015,0.5768305833856994,-0.0582387544041052,0.0816749872481131,6.6092592447225611,6.7591472797764283,-4.6157665384033901,0.8417011159003491
6.7033996226080621,0.3172553356562998,1.3169242086671802,0.5830757913328199,-0.0666576234809022,0.0867729221265124,6.7087745419010592,6.6905304441733477,-4.4677275314271165,0.8565668668069832
6.8031175368385854,0.3101640010800438,1.3098257149398087,0.5901742850601914,-0.0755880909813633,0.0919142829642860,6.8081516070810038,6.6234373614731679,-4.3238633421625634,0.8715841395095441
6.9027660538923694,0.3021568413689346,1.3017603182483171,0.5982396817516829,-0.0850349142819358,0.0971072356231258,6.9072294430947530,6.5578511580686438,-4.1836658324202656,0.8867525660333390
7.0023321159681924,0.2931828568162454,1.2927303949215969,0.6072696050784031,-0.0950036499288098,0.1023581559106393,7.0060482891327638,6.4937610443839402,-4.0467323856115573,0.9020716943413538
7.1018011096649403,0.2831906893512809,1.2827136889887831,0.6172863110112169,-0.1055003299646877,0.1076713179402284,7.1046141722341360,6.4311610099959537,-3.9127183545565218,0.9175409738545149
7.2011567595473043,0.2721286198278102,1.2716330819142998,0.6283669180857006,-0.1165313653855695,0.1130498098691899,7.2029343110157944,6.3700491684526552,-3.7813413041894695,0.9331597421903782
7.3003810187489053,0.2599445820618115,1.2594030563844048,0.6405969436155957,-0.1281034055550203,0.1184952861479920,7.3010171789221738,6.3104269806888995,-3.6523796429414239,0.9489272127695874
7.3994539577634457,0.2465861991764129,1.2460012893540668,0.6539987106459336,-0.1402231921317572,0.1240078564009382,7.3988725799681649,6.2522984423000523,-3.5256704732613064,0.9648424636666803
7.4983536520672684,0.2320008385769002,1.2313725154433610,0.6686274845566397,-0.1528973962641336,0.1295860050765675,7.4965117366646430,6.1956692488124343,-3.4010651788113808,0.9809044280269612
7.5970560708184820,0.2161356932330600,1.2154587962670895,0.6845412037329104,-0.1661324564615438,0.1352276164766373,7.5944909954746382,6.1405466297249838,-3.2784203267218022,0.9971118854526125
7.6955349669764628,0.1989378820743480,1.1981999077634378,0.7018000922365626,-0.1799346207205317,0.1409301664318696,7.6917532196643368,6.0869393169243349,-3.1576522481189855,1.0134634534207909
7.7937617643825234,0.1803545369819461,1.1795348912167758,0.7204651087832245,-0.1943098227185414,0.1466892352389073,7.7888303578089015,6.0348566013854263,-3.0386994725819831,1.0299575798940066
7.8917054537550895,0.1603329422099267,1.1594039523701634,0.7405960476298370,-0.2092634266427136,0.1524994248335630,7.8857394795434175,5.9843079637402870,-2.9214626158486472,1.0465925377439806
7.9893324932852190,0.1388206865982802,1.1377485678429771,0.7622514321570234,-0.2248002867479961,0.1583559756133440,7.9824996285449172,5.9353036967982424,-2.8058166194139385,1.0633664189760050
8.0866067101602983,0.1157658064995240,1.1145141262199767,0.7854858737800235,-0.2409248154421681,0.1642544656360831,8.0791319676430096,5.8878553494014119,-2.6916140570853675,1.0802771276333447
8.1834892073577326,0.0911169403327145,1.0896432775536142,0.8103567224463862,-0.2576409827152919,0.1701907331889034,8.1756599285368772,5.8419761311961107,-2.5786707259790345,1.0973223715770406
8.2799382749445556,0.0648234878018821,1.0630510532577406,0.8369489467422605,-0.2749523687396289,0.1761612946801346,8.2724619013225560,5.7976815791089500,-2.4667570546074415,1.1144996527401265
8.3759093054920140,0.0368357707667008,1.0346384009942580,0.8653615990057493,-0.2928622468487201,0.1821636029251924,8.3687743636293668,5.7549903955896191,-2.3555911974335406,1.1318062551230372
8.4713547129320350,0.0071051934317897,1.0043709791337663,0.8956290208664676,-0.3113736877780888,0.1881962500439116,8.4650483043077625,5.7139254336375878,-2.2448369919005762,1.1492392299094825
8.5662238541972933,-0.0244155991900556,0.9721912407965857,0.9278087592102791,-0.3304896832065296,0.1942590113532945,8.5613163888240553,5.6745147447136688,-2.1340963780921776,1.1667953772226787
8.6604629525034280,-0.0577725662743482,0.9379802019224053,0.9620197982460699,-0.3502132587751672,0.2003530321656255,8.6576141882496565,5.6367927840595531,-2.0229263133497750,1.1844712240313584
8.7540150229591340,-0.0930101147573615,0.9016243507899183,0.9983756526421590,-0.3705476349590073,0.2064802424033483,8.7539802743558273,5.6008013358767963,-1.9108141012192279,1.2022629982276010
8.8468197953491003,-0.1301709540256397,0.8630660897811901,1.0369339679073162,-0.3914962230730092,0.2126440093858557,8.8504562842747845,5.5665908838295701,-1.7972267350937434,1.2201665985963639
8.9388136497853754,-0.1692959168836403,0.8222201548325742,1.0777806391079316,-0.4130629166162532,0.2188474633151996,8.9470869605172236,5.5342211003022967,-1.6817079244875268,1.2381775612062573
9.0299295259570496,-0.2104238445269874,0.7789947386204263,1.1210141107452023,-0.4352517524581412,0.2250902577180074,9.0439201294359304,5.5037595416074581,-1.5632315373380288,1.2562910268391920
9.1200968977154826,-0.2535913218377300,0.7334564017963737,1.1666223133520928,-0.4580665548426275,0.2313889523768385,9.1410066797124916,5.4752920530046438,-1.4412312687619360,1.2745016936040723
9.2092417211470963,-0.2988324714298675,0.6862805237292513,1.2142674764222747,-0.4815146705505087,0.2377436689803872,9.2384004581044969,5.4489145364417384,-1.3094800447509121,1.2928037642950341
9.2972860941818247,-0.3461793331491840,0.6402452360200117,1.2626650373982928,-0.5055999494378676,0.2443356752431808,9.3361579077350338,5.4248371646239706,-1.1559546110901098,1.3111907354552916
9.3841488340355976,-0.3956603693429272,0.6015563832536686,1.3098369842904098,-0.5303659767485813,0.2515278506982714,9.4321204693954712,5.4034935357820144,-0.9541711694197118,1.3296548071733225
9.4697407555640627,-0.4473082528318120,0.5756727570167528,1.3558689527693282,-0.5558891542963251,0.2601384678959167,9.5371089350146381,5.3858119509382787,-0.6870897922917787,1.3481856383390649
9.5539653287137316,-0.5011567517869526,0.5598658605695378,1.3990543795525201,-0.5823766550902247,0.2706276112375993,9.6468139433680076,5.3730435970599286,-0.3315043277387960,1.3667688774172666
9.6367020437004296,-0.5572640446483289,0.5509237976972604,1.4203911399113522,-0.6099968553269619,0.2835956440671378,9.7819805745727724,5.3668723236841611,0.0000000000000000,1.3853848436638070
9.7178246297064526,-0.6156803410183177,0.5503768255790786,1.4024119476395016,-0.6390769641549383,0.2951048848267767,9.9717356074935033,5.3668723236841611,0.0000000000000000,1.4040114620422754
9.7971595301139960,-0.6765016219013092,0.5674635524303514,1.3438506908043524,-0.6689980455465072,0.2837731175673509,10.2962288272946267,5.3668723236841611,0.3263925019799840,1.4226380030583603
9.8746437322664846,-0.7396653843653191,0.6072608482219142,1.2663631458574252,-0.6958127378915475,0.2593659972979788,10.4045140165606096,5.3729485106068751,1.0124730736113265,1.4412541994656127
9.9506049870323103,-0.8046524516713389,0.6593525823374279,1.1905759506849634,-0.7208542454668079,0.2537312676207075,10.4982262821260246,5.3917533134887794,1.1237773564645002,1.4598273382206324
10.0248301669095294,-0.8716162430340226,0.7133641014947346,1.1237878012572549,-0.7465424426780998,0.2513732829678448,10.5834437538341373,5.4125489842906571,1.1358471058516839,1.4783324902262776
