# x_m,y_m,w_tr_right_m,w_tr_left_m,psi,kappa,s,velocity,acceleration,time
-0.0439215768042934,-0.0496944393957196,0.9497139833259033,0.9502860166740968,-3.1344506706651267,-0.0016745119204061,0.0000000000000000,8.0000000000000000,0.0000000000000000,0.0000000000000000
-0.0963475271072104,-0.0500688710039400,0.9505108368766386,0.9494891631233615,-3.1345384607828337,-0.0026258925025856,0.0524272874006767,8.0000000000000000,0.0000000000000000,0.0065534109250846
-0.1487808668398991,-0.0504341493149977,0.9504699392624308,0.9495300607375693,-3.1347260267407746,-0.0037969735896684,0.1048618994786552,8.0000000000000000,0.0000000000000000,0.0131077374348319
-0.2012209089976330,-0.0507890087021113,0.9511688019347674,0.9488311980652328,-3.1349366716340095,-0.0042191229254151,0.1573031422813342,8.0000000000000000,0.0000000000000000,0.0196628927851668
-0.2536669631892121,-0.0511322795892865,0.9511609074450337,0.9488390925549665,-3.1351685638797839,-0.0046063365458253,0.2097503198523725,8.0000000000000000,0.0000000000000000,0.0262187899815466
-0.3061183356369561,-0.0514628884513154,0.9514935148985103,0.9485064851014898,-3.1354198744580373,-0.0049586878437458,0.2622027342283725,8.0000000000000000,0.0000000000000000,0.0327753417785466
-0.3585743291767079,-0.0517798578137771,0.9517921979742334,0.9482078020257667,-3.1356887766754955,-0.0052762429538275,0.3146596854152193,8.0000000000000000,0.0000000000000000,0.0393324606769024
-0.4110342432578312,-0.0520823062530375,0.9521013088298352,0.9478986911701649,-3.1359734459292348,-0.0055590607436907,0.3671204713458289,8.0000000000000000,0.0000000000000000,0.0458900589182286
-0.4634973739432147,-0.0523694483962493,0.9524940437012367,0.9475059562987634,-3.1362720594696833,-0.0058071928024617,0.4195843878210792,8.0000000000000000,0.0000000000000000,0.0524480484776349
-0.5159630139092679,-0.0526405949213520,0.9528949830559271,0.9471050169440730,-3.1365827961629673,-0.0060206834256589,0.4720507284356636,8.0000000000000000,0.0000000000000000,0.0590063410544580
-0.5684304524459217,-0.0528951525570718,0.9529482091122602,0.9470517908877399,-3.1369038362524932,-0.0061995695957625,0.5245187844906334,8.0000000000000000,0.0000000000000000,0.0655648480613292
-0.6208989754566300,-0.0531326240829218,0.9531447163712888,0.9468552836287113,-3.1372333611196317,-0.0063438809577045,0.5769878448943686,8.0000000000000000,0.0000000000000000,0.0721234806117961
-0.6733678654583694,-0.0533526083292019,0.9533587373634091,0.9466412626365910,-3.1375695530433401,-0.0064536397886055,0.6294571960537191,8.0000000000000000,0.0000000000000000,0.0786821495067149
-0.7258364015816373,-0.0535548001769988,0.9535604899973927,0.9464395100026074,-3.1379105949585404,-0.0065288609612672,0.6819261217570531,8.0000000000000000,0.0000000000000000,0.0852407652196316
-0.7783038595704554,-0.0537389905581858,0.9537591195116875,0.9462408804883127,-3.1382546702130583,-0.0065695519009526,0.7343939030509569,8.0000000000000000,0.0000000000000000,0.0917992378813696
-0.8307695117823661,-0.0539050664554234,0.9539181369075448,0.9460818630924553,-3.1385999623229051,-0.0065757125352028,0.7868598181123070,8.0000000000000000,0.0000000000000000,0.0983574772640384
-0.8832326271884345,-0.0540530109021585,0.9540564256092936,0.9459435743907065,-3.1389446547256972,-0.0065473352363028,0.8393231421174611,8.0000000000000000,0.0000000000000000,0.1049153927646826
-0.9356924713732478,-0.0541829029826251,0.9542137174659168,0.9457862825340834,-3.1392869305319637,-0.0064844047562009,0.8917831471102883,8.0000000000000000,0.0000000000000000,0.1114728933887860
-0.9881483065349164,-0.0542949178318437,0.9543247067908032,0.9456752932091970,-3.1396249722741230,-0.0063868981539915,0.9442391018707784,8.0000000000000000,0.0000000000000000,0.1180298877338473
-1.0405993914850709,-0.0543893266356219,0.9543968646819658,0.9456031353180343,-3.1399569616528953,-0.0062547847157533,0.9966902717859534,8.0000000000000000,0.0000000000000000,0.1245862839732442
-1.0930449816488657,-0.0544664966305540,0.9546936357858807,0.9453063642141194,-3.1402810792809128,-0.0060880258668839,1.0491359187248257,8.0000000000000000,0.0000000000000000,0.1311419898406032
-1.1454843290649788,-0.0545268911040210,0.9545631158242514,0.9454368841757488,-3.1405955044233069,-0.0058865750772201,1.1015753009191291,8.0000000000000000,0.0000000000000000,0.1376969126148911
-1.1979166823856067,-0.0545710693941907,0.9546122285217937,0.9453877714782064,-3.1408984147350596,-0.0056503777590437,1.1540076728515574,8.0000000000000000,0.0000000000000000,0.1442509591064447
-1.2503412868764703,-0.0545996868900179,0.9546848695244750,0.9453151304755252,-3.1411879859949039,-0.0053793711584088,1.2064322851532667,8.0000000000000000,0.0000000000000000,0.1508040356441583
-1.3027573844168143,-0.0546134950312440,0.9546746533301315,0.9453253466698687,-3.1414623918355948,-0.0050734842402712,1.2588483845123724,8.0000000000000000,0.0000000000000000,0.1573560480640465
-1.3551642134994020,-0.0546133413083973,0.9546300787419251,0.9453699212580751,3.1414655037092132,-0.0047326375679042,1.3112552135951854,8.0000000000000000,0.0000000000000000,0.1639069016993982
-1.4075610092305231,-0.0546001692627928,0.9546190384430593,0.9453809615569408,3.1412269177641088,-0.0043567431771964,1.3636520109819685,8.0000000000000000,0.0000000000000000,0.1704565013727461
-1.4599470033299855,-0.0545750184865324,0.9545822817156308,0.9454177182843694,3.1410089919710140,-0.0039457044466597,1.4160380111189370,8.0000000000000000,0.0000000000000000,0.1770047513898671
-1.5123214241311222,-0.0545390246225047,0.9545401876261913,0.9454598123738088,3.1408135640565780,-0.0034994159639456,1.4684124442883069,8.0000000000000000,0.0000000000000000,0.1835515555360384
-1.5646834965807872,-0.0544934193643853,0.9544929823911161,0.9455070176088840,3.1406424753017439,-0.0030177633897067,1.5207745365981404,8.0000000000000000,0.0000000000000000,0.1900968170747676
-1.6170324422393572,-0.0544395304566363,0.9544410025645342,0.9455589974354659,3.1404975708359948,-0.0025006233199892,1.5731235099937886,8.0000000000000000,0.0000000000000000,0.1966404387492236
-1.6693674792807300,-0.0543787816945069,0.9543846951945398,0.9456153048054603,3.1403806999358492,-0.0019478631481928,1.6254585822927161,8.0000000000000000,0.0000000000000000,0.2031823227865895
-1.7216878224923282,-0.0543126929240329,0.9543246225909553,0.9456753774090448,3.1402937163275588,-0.0013593409279351,1.6777789672445207,8.0000000000000000,0.0000000000000000,0.2097223709055651
-1.7739926832750936,-0.0542428800420370,0.9542614728921337,0.9457385271078664,3.1402384784938944,-0.0007349052381054,1.7300838746179494,8.0000000000000000,0.0000000000000000,0.2162604843272437
-1.8262812696434929,-0.0541710549961285,0.9541960778041348,0.9458039221958653,3.1402168499848830,-0.0000743950516755,1.7823725103167585,8.0000000000000000,0.0000000000000000,0.2227965637895948
-1.8785527862255136,-0.0540990257847039,0.9541294390227454,0.9458705609772547,3.1402306997322702,0.0006223603900294,1.8346440765262357,8.0000000000000000,0.0000000000000000,0.2293305095657795
-1.9308064342626656,-0.0540286964569461,0.9540627648545003,0.9459372351454999,3.1402819023674451,0.0013555416960432,1.8868977718922566,8.0000000000000000,0.0000000000000000,0.2358622214865321
-1.9830414116099795,-0.0539620671128249,0.9539975182908439,0.9460024817091562,3.1403723385425013,0.0021253394353531,1.9391327917347330,8.0000000000000000,0.0000000000000000,0.2423915989668416
-2.0352569127360134,-0.0539012339030971,0.9539183773192778,0.9460816226807224,3.1405038952540174,0.0029319542353433,1.9913483282973525,8.0000000000000000,0.0000000000000000,0.2489185410371691
-2.0874521287228402,-0.0538483890293062,0.9538612770518724,0.9461387229481277,3.1406784661690876,0.0037755968670484,2.0435435710354812,8.0000000000000000,0.0000000000000000,0.2554429463794352
-2.1396262472660608,-0.0538058207437822,0.9538257173376118,0.9461742826623883,3.1408979519530522,0.0046564883146215,2.0957177069441952,8.0000000000000000,-5.8795962648467119,0.2619647133680244
-2.1917784526747970,-0.0537759133496424,0.9537923609751447,0.9462076390248554,3.1411642605982708,0.0055748598265590,2.1478699209283323,7.9615784914117853,-8.0915338441538509,0.2684994322258364
-2.2439079258716905,-0.0537611472007905,0.9537700499502475,0.9462299500497526,3.1414793077532224,0.0065309529460675,2.1999993962165489,7.9084206544521631,-8.0356633579685344,0.2750689946825304
-2.2960138443929079,-0.0537640987019173,0.9537668383208373,0.9462331616791628,-3.1413402901284853,0.0075250195174227,2.2521053148213590,7.8552979578138000,-7.9790766312172376,0.2816798610506050
-2.3480953823881374,-0.0537874403085001,0.9537880125080294,0.9462119874919708,-3.1409219867426179,0.0085573216653751,2.3041868580471423,7.8022164002988603,-7.9218324467764472,0.2883324550747386
-2.4001517106205883,-0.0538339405268032,0.9538393486027409,0.9461606513972592,-3.1404491486871464,0.0096281317442796,2.3562432070481525,7.7491817250557924,-7.8639881676468821,0.2950272034930353
-2.4521819964669933,-0.0539064639138777,0.9539263523393714,0.9460736476606287,-3.1399198264228438,0.0107377322532589,2.4082735434385727,7.6961994197443166,-7.8055997733755147,0.3017645362791461
-2.5041854039176088,-0.0540079710775614,0.9540282821152601,0.9459717178847400,-3.1393320611367170,0.0118864157136881,2.4602770499566819,7.6432747164476424,-7.7467218996869347,0.3085448869034758
-2.5561610935762089,-0.0541415186764790,0.9542287761861764,0.9457712238138237,-3.1386838844321607,0.0130744845050128,2.5122529111852203,7.5904125913035436,-7.6874078813140851,0.3153686926149258
-2.6081082226600958,-0.0543102594200419,0.9543833769254920,0.9456166230745081,-3.1379733180269564,0.0143022506545251,2.5642003143300989,7.5376177638243167,-7.6277097980394108,0.3222363947447369
-2.6600259450000885,-0.0545174420684484,0.9545378927735110,0.9454621072264892,-3.1371983734608127,0.0155700355765678,2.6161184500595565,7.4848946958738738,-7.5676785239372215,0.3291484390340981
-2.7119134110405310,-0.0547664114326834,0.9548784130877370,0.9451215869122631,-3.1363570518142767,0.0168781697562744,2.6680065134059792,7.4322475902683713,-7.5073637798383261,0.3361052759873295
-2.7637697678392890,-0.0550606083745190,0.9553585712043192,0.9446414287956809,-3.1354473434410339,0.0182269923727624,2.7198637047325511,7.3796803889647897,-7.4468141890329180,0.3431073612525667
-2.8155941590677513,-0.0554035698065136,0.9554205512778635,0.9445794487221366,-3.1344672277157506,0.0196168508563023,2.7716892307669734,7.3271967707996657,-7.3860773362473200,0.3501551560320333
-2.8673857250108301,-0.0557989286920128,0.9558478662848380,0.9441521337151622,-3.1334146727998284,0.0210481003735543,2.8234823057045038,7.2748001487378158,-7.3251998299087608,0.3572491275241422
-2.9191436025669533,-0.0562504140451487,0.9563272195448849,0.9436727804551153,-3.1322876354276104,0.0225211032349873,2.8752421523825875,7.2224936665884965,-7.2642273677596316,0.3643897493998421
-2.9708669252480808,-0.0567618509308405,0.9567802604951432,0.9432197395048569,-3.1310840607157688,0.0240362282178306,2.9269680035294181,7.1702801951435626,-7.2032048058575002,0.3715775023158190
-3.0225548231796862,-0.0573371604647940,0.9573484720437626,0.9426515279562375,-3.1298018819988460,0.0255938497977083,2.9786591030887029,7.1181623276894301,-7.1421762310189267,0.3788128744673580
-3.0742064231007702,-0.0579803598135018,0.9579959398946595,0.9420040601053407,-3.1284390206941080,0.0271943472819648,3.0303147076230599,7.0661423748413537,-7.0811850367724247,0.3860963621839100
-3.1258208483638557,-0.0586955621942434,0.9587562216735922,0.9412437783264079,-3.1269933861991115,0.0288381038369432,3.0819340877983783,7.0142223586452364,-7.0202740028905559,0.3934284705706416
-3.1773972189349826,-0.0594869768750849,0.9595482683509826,0.9404517316490175,-3.1254628758256366,0.0305255054013145,3.1335165299515690,6.9624040058884429,-6.9594853785770532,0.4008097141995167
-3.2289346513937209,-0.0603589091748795,0.9605464321098421,0.9394535678901580,-3.1238453747738690,0.0322569394771012,3.1850613377441532,6.9106887405571475,-6.8988609693960372,0.4082406178537563
-3.2804322589331587,-0.0613157604632670,0.9614385232334332,0.9385614767665670,-3.1221387561510037,0.0340327937897082,3.2365678339040946,6.8590776753734897,-6.8384422280427488,0.4157217173298306
-3.3318891513599027,-0.0623620281606740,0.9624195758871140,0.9375804241128861,-3.1203408810386866,0.0358534548078775,3.2880353620583800,6.8075716023410662,-6.7782703490288405,0.4232535603014960
-3.3833044350940904,-0.0635023057383139,0.9635424988099861,0.9364575011900140,-3.1184495986140188,0.0377193061140356,3.3394632886588282,6.7561709822224607,-6.7183863674212354,0.4308367072507719
-3.4346772131693752,-0.0647412827181871,0.9647553177767794,0.9352446822232208,-3.1164627463291250,0.0396307266151165,3.3908510050035843,6.7048759328668996,-6.6588312617194694,0.4384717324711584
-3.4860065852329329,-0.0660837446730805,0.9661090284078515,0.9338909715921486,-3.1143781501546135,0.0415880885837794,3.4421979293568450,6.6536862163002928,-6.5996460609825824,0.4461592251488732
-3.5372916475454641,-0.0675345732265679,0.9676035965642588,0.9323964034357414,-3.1121936248925346,0.0435917555194784,3.4935035091692965,6.6026012244836627,-6.5408719563356703,0.4538997905283784
-3.5885314929811925,-0.0690987460530101,0.9691268211464917,0.9308731788535084,-3.1099069745648018,0.0456420798184128,3.5447672234017662,6.5516199636388883,-6.4825504169618311,0.4616940511690247
-3.6397252110278586,-0.0707813368775544,0.9710004128715867,0.9289995871284135,-3.1075159928833465,0.0477394002413410,3.5959885849545832,6.5007410370332774,-6.4247233106965060,0.4695426483002531
-3.6908718877867313,-0.0725875154761351,0.9726698108161005,0.9273301891838996,-3.1050184638086269,0.0498840391680358,3.6471671432051491,6.4499626261062932,-6.3674330293364623,0.4774462432834710
-3.7419706059725977,-0.0745225476754732,0.9746286822023935,0.9253713177976066,-3.1024121622034313,0.0520762996267012,3.6983024866561425,6.3992824698129516,-6.3107226187841361,0.4854055191894515
-3.7930204449137692,-0.0765917953530765,0.9766163996235478,0.9233836003764523,-3.0996948545893011,0.0543164620869546,3.7493942456968217,6.3486978420485869,-6.2546359141057923,0.4934211825009394
-3.8440204805520795,-0.0788007164372397,0.9788374241552124,0.9211625758447878,-3.0968643000131850,0.0566047810047328,3.8004420954797946,6.2982055270093769,-6.1992176796196468,0.5014939649510476
-3.8949697854428824,-0.0811548649070442,0.9812477673899047,0.9187522326100954,-3.0939182510323500,0.0589414811075882,3.8514457589156095,6.2478017923312930,-6.1445137540756782,0.5096246255090385
-3.9458674287550557,-0.0836598907923582,0.9836755981367831,0.9163244018632171,-3.0908544548258456,0.0613267534092569,3.9024050097874512,6.1974823598376840,-6.0905712009872470,0.5178139525262060
-3.9967124762710009,-0.0863215401738369,0.8886289968229898,0.9138329380693921,-3.0876706544412071,0.0637607509423279,3.9533196759881508,6.1472423737119355,-6.0374384641660193,0.5260627660558147
-4.0475039903866383,-0.0891456551829219,0.8890949381247728,0.9109050618752272,-3.0843645901853716,0.0662435841986361,4.0041896428816290,6.0970763658964025,-5.9851655284506045,0.5343719203624437
-4.0982410301114109,-0.0921381740018419,0.8920576695344894,0.9079423304655106,-3.0809340011691102,0.0687753162676588,4.0550148567908177,6.0469782185023355,-5.9338040856187391,0.5427423066376310
-4.1489226510682888,-0.0953051308636124,0.8952985178549141,0.9047014821450859,-3.0773766270145382,0.0713559576638229,4.1057953286139606,5.9969411229971277,-5.8834077054243279,0.5511748559404429
-4.1995479054937555,-0.0986526560520355,0.8986435466565360,0.9013564533434640,-3.0736902097355672,0.0739854608347014,4.1565311375710507,5.9469575359149731,-5.8340320116305566,0.5596705423835345
-4.2501158422378271,-0.1021869759017004,0.9021954020069661,0.8978162975717680,-3.0698724958013637,0.0766637143439310,4.2072224350820848,5.8970191308147353,-5.7857348629008758,0.5682303865874544
-4.3006255067640362,-0.1059144127979828,0.9074823153254619,0.8955317395502099,-3.0659212383930621,0.0793905367231775,4.2578694487785107,5.8471167461839268,-5.7385765383170426,0.5768554594283808
-4.3510759411494355,-0.1098413851770454,0.9155392996537308,0.8958479338693170,-3.0618341998642018,0.0821656699904405,4.3084724866491904,5.7972403289599796,-5.6926199271991331,0.5855468861072649
-4.4014661840846037,-0.1139744075258375,0.9270571499843683,0.8989147866082449,-3.0576091544153323,0.0849887728339378,4.3590319413218914,5.7473788733094446,-5.6479307228879456,0.5943058505714651
-4.4517952708736424,-0.1183200903820955,0.9407383475222547,0.9040857432236107,-3.0532438909933690,0.0878594134624832,4.4095482944810991,5.6975203542709218,-5.6045776199914137,0.6031336003235068
-4.5020622334341702,-0.1228851403343423,0.9511484311515167,0.9123568007879922,-3.0487362164262071,0.0907770621275104,4.4600221214226741,5.6476516558289349,-5.5626325145063094,0.6120314516556226
-4.5522661002973344,-0.1276763600218878,0.8790879510259927,0.9238244902773700,-3.0440839588029549,0.0937410833247418,4.5104540957456036,5.5977584929423632,-5.5221707061422283,0.6210007953533160
-4.6024058966078023,-0.1327006481348285,0.8883770757849383,0.9230459320704900,-3.0392849711099563,0.0967507276866972,4.5608449941807088,5.5478253270015010,-5.4832711019952969,0.6300431029164129
-4.6524806441237603,-0.1379649994140479,0.9006706809110496,0.9247893674114129,-3.0343371351324864,0.0998051235826276,4.6111957015558582,5.4978352741318970,-5.4460164205864476,0.6391599333520652
-4.7024893612169212,-0.1434765046512163,0.9158437914087499,0.9290082416962414,-3.0292383656314756,0.1029032684468358,4.6615072158968429,5.4477700056993781,-5.4104933951402918,0.6483529406010459
-4.7524310628725193,-0.1492423506887906,0.9312841147429410,0.9362067315173703,-3.0239866148041359,0.1060440198608645,4.7117806536625837,5.3976096402975209,-5.3767929747641965,0.6576238816665892
-4.8023047606893066,-0.1552698204200147,0.8653693004937377,0.9450215047048370,-3.0185798770366286,0.1092260864224510,4.7620172551129309,5.3473326264151755,-5.3450105220075228,0.6669746255241860
-4.8521094628795645,-0.1615662927889191,0.8661165121322434,0.9441742721215011,-3.0130161939559716,0.1124480184394824,4.8122183898068069,5.2969156148850676,-5.3152460050868031,0.6764071629013382
-4.9018441742690921,-0.1681392427903212,0.8799183768554182,0.9442212709227077,-3.0072936597874329,0.1157081984938269,4.8623855622278285,5.2463333201025817,-5.2876041827931468,0.6859236170285935
-4.9515078962972119,-0.1749962414698255,0.8968350054591069,0.9469687641032272,-3.0014104270223729,0.1190048319286889,4.9125204175340631,5.1955583688739972,-5.2621947798810380,0.6955262554775560
-5.0010996270167674,-0.1821449559238227,0.9155720291671858,0.9517315122989084,-2.9953647124000353,0.1223359373204983,4.9626247474278529,5.1445611356017098,-5.2391326504747164,0.7052175032183780
-5.0506183610941289,-0.1895931492994910,0.8526253560260149,0.9598126900586286,-2.9891548032051478,0.1256993370042049,5.0127004961410355,5.0933095623359819,-5.2185379267403587,0.7149999570489913
-5.1000630898091792,-0.1973486807947945,0.8512251029915340,0.9582551779121687,-2.9827790638813472,0.1290926477308524,5.0627497665301187,5.0417689620133253,-5.2005361497776477,0.7248764015716146
-5.1494328010553350,-0.2054195056584849,0.8650647799967920,0.9566876295068503,-2.9762359429582239,0.1325132715456872,5.1127748262753023,4.9899018029538116,-5.1852583794092517,0.7348498269196397
-5.1987264793395278,-0.2138136751901005,0.8841834023929285,0.9573095598462996,-2.9695239802874411,0.1359583869834213,5.1627781141763096,4.9376674723950655,-5.1728412792149197,0.7449234484707218
-5.2479431057822143,-0.2225393367399661,0.9044721217895738,0.9602679891413877,-2.9626418145807683,0.1394249406884316,5.2127622465373076,4.8850220164890610,-5.1634271728434795,0.7551007288209889
