# x_m,y_m,w_tr_right_m,w_tr_left_m,psi,kappa,s,velocity,acceleration,time
0.0039018739857148,-0.0391357177769402,0.9391180462308429,0.9608819537691572,-3.1401013035237852,-0.0043742679676293,0.0000000000000000,8.0000000000000000,0.0000000000000000,0.0000000000000000
-0.0480909528496668,-0.0392132573401590,0.9392126611138615,0.9607873388861387,-3.1398738727138955,-0.0065136627881015,0.0519928846547087,8.0000000000000000,0.0000000000000000,0.0064991105818386
-0.1000941427435625,-0.0393144643176822,0.9392618328827470,0.9607381671172531,-3.1394239075214054,-0.0085586615807972,0.1039961730314343,8.0000000000000000,0.0000000000000000,0.0129995216289293
-0.1521071498307646,-0.0394388424120873,0.9394329938532838,0.9605670061467163,-3.1389836311693582,-0.0083710056156201,0.1560093288303637,8.0000000000000000,0.0000000000000000,0.0195011661037955
-0.2041294282460626,-0.0395858953259516,0.9395418786620880,0.9604581213379121,-3.1385530245775533,-0.0081838643596283,0.2080318150846581,8.0000000000000000,0.0000000000000000,0.0260039768855823
-0.2561604321242486,-0.0397551267618526,0.9394214491800418,0.9605785508199584,-3.1381320692676633,-0.0079972202910834,0.2600630941757078,8.0000000000000000,0.0000000000000000,0.0325078867719635
-0.3081996156001137,-0.0399460404223678,0.9399191155734474,0.9600808844265527,-3.1377207473620103,-0.0078110559424120,0.3121026278482968,8.0000000000000000,0.0000000000000000,0.0390128284810371
-0.3602464328084484,-0.0401581400100744,0.9401557676362635,0.9598442323637366,-3.1373190415823942,-0.0076253538975320,0.3641498772256933,8.0000000000000000,0.0000000000000000,0.0455187346532117
-0.4123003378840437,-0.0403909292275500,0.9403857896689292,0.9596142103310710,-3.1369269352489897,-0.0074400967891252,0.4162043028246649,8.0000000000000000,0.0000000000000000,0.0520255378530831
-0.4643607849616921,-0.0406439117773719,0.9406044335225987,0.9593955664774014,-3.1365444122793025,-0.0072552672959905,0.4682653645704182,8.0000000000000000,0.0000000000000000,0.0585331705713023
-0.5164272281761825,-0.0409165913621176,0.9408118196599918,0.9591881803400083,-3.1361714571871850,-0.0070708481403283,0.5203325218114631,8.0000000000000000,0.0000000000000000,0.0650415652264329
-0.5684991216623075,-0.0412084716843645,0.9411304000864996,0.9588695999135005,-3.1358080550819185,-0.0068868220850152,0.5724052333344178,8.0000000000000000,0.0000000000000000,0.0715506541668022
-0.6205759195548582,-0.0415190564466900,0.9414855581861802,0.9585144418138200,-3.1354541916673564,-0.0067031719309128,0.6244829573787360,8.0000000000000000,0.0000000000000000,0.0780603696723420
-0.6726570759886250,-0.0418478493516715,0.9418181159255441,0.9581818840744560,-3.1351098532411301,-0.0065198805141862,0.6765651516513744,8.0000000000000000,0.0000000000000000,0.0845706439564218
-0.7247420450983990,-0.0421943541018864,0.9421859381157912,0.9578140618842089,-3.1347750266939158,-0.0063369307035460,0.7286512733413989,8.0000000000000000,0.0000000000000000,0.0910814091676749
-0.7768302810189721,-0.0425580743999122,0.9425561389729236,0.9574438610270766,-3.1344496995087709,-0.0061543053975584,0.7807407791345284,8.0000000000000000,0.0000000000000000,0.0975925973918161
-0.8289212378851344,-0.0429385139483263,0.9429384083968040,0.9570615916031961,-3.1341338597605248,-0.0059719875219170,0.8328331252276194,8.0000000000000000,0.0000000000000000,0.1041041406534524
-0.8810143698316777,-0.0433351764497061,0.9433244599994814,0.9566755400005187,-3.1338274961152432,-0.0057899600266788,0.8849277673430997,8.0000000000000000,0.0000000000000000,0.1106159709178875
-0.9331091309933927,-0.0437475656066290,0.9437111910817024,0.9562888089182977,-3.1335305978297505,-0.0056082058835861,0.9370241607433427,8.0000000000000000,0.0000000000000000,0.1171280200929178
-0.9852049755050706,-0.0441751851216724,0.9441481939340188,0.9558518060659813,-3.1332431547512165,-0.0054267080832871,0.9891217602449951,8.0000000000000000,0.0000000000000000,0.1236402200306244
-1.0373013575015022,-0.0446175386974137,0.9446086808157526,0.9553913191842476,-3.1329651573168116,-0.0052454496325899,1.0412200202332529,8.0000000000000000,0.0000000000000000,0.1301525025291566
-1.0893977311174792,-0.0450741300364304,0.9448700112409577,0.9551299887590424,-3.1326965965534228,-0.0050644135517056,1.0933183946760925,8.0000000000000000,0.0000000000000000,0.1366647993345116
-1.1414935504877923,-0.0455444628412999,0.9452598034196741,0.9547401965803261,-3.1324374640774391,-0.0048835828714719,1.1454163371384549,8.0000000000000000,0.0000000000000000,0.1431770421423069
-1.1935882697472324,-0.0460280408145996,0.9459775705545637,0.9540224294454365,-3.1321877520945991,-0.0047029406306203,1.1975133007963894,8.0000000000000000,0.0000000000000000,0.1496891625995487
-1.2456813430305911,-0.0465243676589069,0.9465018026883429,0.9534981973116572,-3.1319474533999037,-0.0045224698729548,1.2496087384511567,8.0000000000000000,0.0000000000000000,0.1562010923063946
-1.2977722244726593,-0.0470329470767993,0.9470228696791428,0.9529771303208573,-3.1317165613775995,-0.0043421536445659,1.3017021025432933,8.0000000000000000,0.0000000000000000,0.1627127628179117
-1.3498603682082282,-0.0475532827708541,0.9473761689880931,0.9526238310119071,-3.1314950700012232,-0.0041619749910394,1.3537928451666406,8.0000000000000000,0.0000000000000000,0.1692241056458301
-1.4019452283720883,-0.0480848784436487,0.9478588055300263,0.9521411944699738,-3.1312829738337173,-0.0039819169546447,1.4058804180823390,8.0000000000000000,0.0000000000000000,0.1757350522602924
-1.4540262590990305,-0.0486272377977606,0.9486082371090896,0.9513917628909105,-3.1310802680276080,-0.0038019625715131,1.4579642727327937,8.0000000000000000,0.0000000000000000,0.1822455340915992
-1.5061029145238467,-0.0491798645357673,0.9491620472390143,0.9508379527609858,-3.1308869483252546,-0.0036220948687769,1.5100438602556092,8.0000000000000000,0.0000000000000000,0.1887554825319512
-1.5581746487813284,-0.0497422623602460,0.9497394808872703,0.9502605191127298,-3.1307030110591656,-0.0034422968617716,1.5621186314974953,8.0000000000000000,0.0000000000000000,0.1952648289371869
-1.6102409160062652,-0.0503139349737743,0.9503239392464650,0.9496760607535352,-3.1305284531523787,-0.0032625515511452,1.6141880370281483,8.0000000000000000,0.0000000000000000,0.2017735046285185
-1.6623011703334489,-0.0508943860789295,0.9509124135088891,0.9490875864911110,-3.1303632721189159,-0.0030828419199966,1.6662515271541141,8.0000000000000000,0.0000000000000000,0.2082814408942643
-1.7143548658976713,-0.0514831193782891,0.9515115526717298,0.9484884473282703,-3.1302074660642996,-0.0029031509309928,1.7183085519326251,8.0000000000000000,0.0000000000000000,0.2147885689915781
-1.7664014568337230,-0.0520796385744305,0.9520969145045604,0.9479030854954398,-3.1300610336861450,-0.0027234615234626,1.7703585611854202,8.0000000000000000,0.0000000000000000,0.2212948201481775
-1.8184403972763943,-0.0526834473699311,0.9526904111010968,0.9473095888989034,-3.1299239742748153,-0.0025437566104902,1.8224010045125492,8.0000000000000000,0.0000000000000000,0.2278001255640686
-1.8704711413604773,-0.0532940494673684,0.9532966781305815,0.9467033218694186,-3.1297962877141519,-0.0023640190759919,1.8744353313061644,8.0000000000000000,0.0000000000000000,0.2343044164132705
-1.9224931432207628,-0.0539109485693196,0.9539119756349946,0.9460880243650055,-3.1296779744822687,-0.0021842317717845,1.9264609907642964,8.0000000000000000,0.0000000000000000,0.2408076238455371
-1.9745058569920417,-0.0545336483783624,0.9545343238030900,0.9454656761969101,-3.1295690356524215,-0.0020043775145927,1.9784774319046241,8.0000000000000000,0.0000000000000000,0.2473096789880780
-2.0265087368091050,-0.0551616525970740,0.9551624790909611,0.9448375209090391,-3.1294694728939465,-0.0018244390830808,2.0304841035782339,8.0000000000000000,0.0000000000000000,0.2538105129472792
-2.0785012368067433,-0.0557944649280319,0.9557955535927681,0.9442044464072320,-3.1293792884732703,-0.0016443992148830,2.0824804544833757,8.0000000000000000,0.0000000000000000,0.2603100568104220
-2.1304828111197498,-0.0564315890738135,0.9564328521668083,0.9435671478331918,-3.1292984852549885,-0.0014642406035843,2.1344659331792171,8.0000000000000000,0.0000000000000000,0.2668082416474021
-2.1824529138829125,-0.0570725287369962,0.9570737951094958,0.9429262048905044,-3.1292270667030198,-0.0012839458956646,2.1864399880995862,8.0000000000000000,0.0000000000000000,0.2733049985124483
-2.2344109992310255,-0.0577167876201575,0.9577178784616696,0.9422821215383306,-3.1291650368818305,-0.0011034976874740,2.2384020675667355,8.0000000000000000,-6.1939543650766566,0.2798002584458419
-2.2863565212988779,-0.0583638694258747,0.9583646524064459,0.9416353475935543,-3.1291124004577311,-0.0009228785221570,2.2903516198050853,7.9596767326505784,-8.4415285290318600,0.2863103592591085
-2.3382889342212607,-0.0590132778567253,0.9590137090122064,0.9409862909877937,-3.1290691627002474,-0.0007420708865431,2.3422880929549916,7.9044042943611208,-8.4536347929000897,0.2928580405350014
-2.3902076921329662,-0.0596645166152867,0.9596646750997977,0.9403353249002024,-3.1290353294835644,-0.0005610572080579,2.3942109350865133,7.8486771980465564,-8.4654372334573686,0.2994501275697249
-2.4421122491687859,-0.0603170894041363,0.9603172080663339,0.9396827919336662,-3.1290109072880430,-0.0003798198516039,2.4461195942131888,7.7924883553147728,-8.4769358054083188,0.3060875688716003
-2.4940020594635088,-0.0609704999258516,0.9609709934927914,0.9390290065072088,-3.1289959032018100,-0.0001983411163494,2.4980135183058243,7.7358303911906141,-8.4881304342038586,0.3127713477068736
-2.5458765771519278,-0.0616242518830099,0.9616257438718985,0.9383742561281017,-3.1289903249224293,-0.0000166032325843,2.5498921553063045,7.6786956292101296,-8.4903926114019708,0.3195024839003343
-2.5977352563688325,-0.0622778489781887,0.9622811980661991,0.9377188019338011,-3.1289941807586388,0.0001654116414820,2.6017549531414064,7.6211347931236055,-8.4801095108118520,0.3262820097386594
-2.6495775512490161,-0.0629307949139653,0.9629371212589672,0.9370628787410329,-3.1290074796321710,0.0003477214229564,2.6536013597366463,7.5632247833592618,-8.4701287050852141,0.3331109321352995
-2.7014029159272663,-0.0635825933929173,0.9635933081202308,0.9364066918797693,-3.1290302310796427,0.0005303441075137,2.7054308230301323,7.5049560074658084,-8.4604493078933771,0.3399902580490215
-2.7532108045383774,-0.0642327481176220,0.9642495640663150,0.9357504359336851,-3.1290624452545286,0.0007132977727039,2.7572427909864583,7.4463185277775850,-8.4510705055482518,0.3469210341289061
-2.8050006712171398,-0.0648807627906568,0.9649057387793274,0.9350942612206727,-3.1291041329292062,0.0008966005812173,2.8090367116106054,7.3873020425062403,-8.4419915569708266,0.3539043488737777
-2.8567719700983436,-0.0655261411145991,0.9655617109071316,0.9344382890928685,-3.1291553054970800,0.0010802707842443,2.8608120329618818,7.3278958655130335,-8.4332117936861462,0.3609413349442213
-2.9085241553167798,-0.0661683867920265,0.9662093813176944,0.9337906186823057,-3.1292159749747848,0.0012643267248460,2.9125682031678921,7.2680889046466888,-8.4247306198468657,0.3680331716405463
-2.9602566810072410,-0.0668070035255162,0.9668247020941675,0.9331752979058326,-3.1292861540044665,0.0014487868413309,2.9643046704385370,7.2078696385196155,-8.4165475122861046,0.3751810875614672
-3.0119690013045171,-0.0674414950176458,0.9674505174113059,0.9325494825886942,-3.1293658558561419,0.0016336696706767,3.0160208830800448,7.1472260915817829,-8.4090879910853857,0.3823863634598457
-3.0636605703433988,-0.0680713649709925,0.9681104107233767,0.9318895892766235,-3.1294550944301376,0.0018105122471475,3.0677162895090460,7.0861426997623065,-8.4090855645414155,0.3896503368995614
-3.1153308422586798,-0.0686961170881339,0.9688364386735332,0.9311635613264669,-3.1295530075207383,0.0015796356082975,3.1193903382666859,7.0245537485633962,-8.4220412548374988,0.3969744330484473
-3.1669792607715581,-0.0693153455429173,0.9694572776703021,0.9305427223296980,-3.1296183121420640,0.0000097585154338,3.1710424687044583,6.9623503660446255,-8.3528158127200154,0.4043602176387379
-3.2186047897127610,-0.0699328137060232,0.9700072573400300,0.9299927426599701,-3.1295540153934045,-0.0030913368850688,3.2226716901337169,6.9001321628832777,-8.1805874734021256,0.4118089875573322
-3.2702057222427809,-0.0705581116029782,0.9705764162046167,0.9294235837953835,-3.1292991812478634,-0.0068297954418673,3.2742764111912677,6.8386775034324172,-8.0121332872168338,0.4193212425941092
-3.3217803016074354,-0.0712012629085239,0.9712362461556355,0.9287637538443646,-3.1288492944902462,-0.0106194184476072,3.3258550005500593,6.7779791184787603,-7.8491743989273237,0.4268970507812371
-3.3733267710525383,-0.0718722912974022,0.9719069979075762,0.9280930020924240,-3.1282040067155146,-0.0144205747705687,3.3774058375108074,6.7180159207241363,-7.6915038827695072,0.4345364781537285
-3.4248433738239039,-0.0725812204443545,0.9725980625650213,0.9274019374349788,-3.1273629324311054,-0.0182343487231697,3.4289273179013984,6.6587673467513815,-7.5389254777916515,0.4422395977095130
-3.4763283531673492,-0.0733380740241228,0.9733474663276600,0.9266525336723401,-3.1263256495748157,-0.0220618089823002,3.4804178599973619,6.6002133191903205,-7.3912533440377359,0.4500064907148293
-3.5277799523286864,-0.0741528757114486,0.9741619391716463,0.9258380608283538,-3.1250917002469452,-0.0259040023860754,3.5318759104661521,6.5423342075750828,-7.2483118331807308,0.4578372480872480
-3.5791964145537336,-0.0750356491810737,0.9750525218580774,0.9249474781419227,-3.1236605916611482,-0.0297619475577320,3.5832999503379708,6.4851107878109042,-7.1099352742308337,0.4657319718630969
-3.6305759830883031,-0.0759964181077397,0.9760302369070610,0.9239697630929391,-3.1220317973190328,-0.0336366283357645,3.6346885010056922,6.4285242001577085,-6.9759677748486730,0.4736907767566221
-3.6819169011782114,-0.0770452061661883,0.9771060516253541,0.9228939483746460,-3.1202047584140811,-0.0375289869899688,3.6860401302564396,6.3725559056264798,-6.8462630386800063,0.4817137918188502
-3.7332174120692723,-0.0781920370311613,0.9782264533018494,0.9217735466981507,-3.1181788854710155,-0.0414399172039779,3.7373534583371315,6.3171876406731755,-6.7206841990335011,0.4898011622047796
-3.7844757590073028,-0.0794469343774003,0.9794598501745260,0.9205401498254742,-3.1159535602272159,-0.0453702568060797,3.7886271640562339,6.2624013700631957,-6.5991036691350242,0.4979530510582774
-3.8356901852381147,-0.0808199218796470,0.9809941464037980,0.9190058535962021,-3.1135281377632618,-0.0493207802313350,3.8398599909237081,6.2081792377674452,-6.4814030090933032,0.5061696415248518
-3.8868589340075248,-0.0823210232126431,0.9824191641744168,0.9175808358255834,-3.1109019488900911,-0.0532921907000458,3.8910507533309913,6.1545035157385426,-6.3674728096259603,0.5144511389033664
-3.9379802485613493,-0.0839602620511304,0.9840294206163561,0.9159705793836440,-3.1080743028006057,-0.0572851120995768,3.9421983427725347,6.1013565504028859,-6.2572125924964395,0.5227977729487151
-3.9890523721454016,-0.0857476620698504,0.9058580326930253,0.9142367111247444,-3.1050444899938618,-0.0613000805588046,3.9933017341102106,6.0487207066907498,-6.1505307275226437,0.5312098003385557
-4.0400735480054966,-0.0876932469435450,0.8877031871398514,0.9122968128601486,-3.1018117854802010,-0.0653375357077494,4.0443599918815787,5.9965783094124854,-6.0473443659084909,0.5396875073183673
-4.0910420193874497,-0.0898070403469557,0.8898136917266620,0.9101863082733380,-3.0983754522757856,-0.0693978116180498,4.0953722766526539,5.9449115817740585,-5.9475793895559921,0.5482312125403974
-4.1419560295370754,-0.0920990659548242,0.8920703912143571,0.9079296087856430,-3.0947347451950566,-0.0734811274236865,4.1463378514154616,5.8937025808093715,-5.8511703758833393,0.5568412701135022
-4.1928138217001889,-0.0945793474418924,0.8945774082798755,0.9054225917201245,-3.0908889149495362,-0.0775875776259391,4.1972560880302696,5.8429331294901434,-5.7580605775661553,0.5655180728824803
-4.2436136391226045,-0.0972579084829018,0.8959487299770891,0.9040512700229110,-3.0868372125611918,-0.0817171220913180,4.2481264737119329,5.7925847452562262,-5.6682019164673445,0.5742620559572813
-4.2943537250501391,-0.1001447727525942,0.9012566583976053,0.9012167697855481,-3.0825788940982353,-0.0858695757567756,4.2989486175593274,5.7426385646900657,-5.5815549908925002,0.5830737005144477
-4.3450323227286072,-0.1032499639257112,0.9083805184119516,0.9018540543020120,-3.0781132257407222,-0.0900445980624305,4.3497222571263077,5.6930752640382218,-5.4980890951171011,0.5919535378953777
-4.3956476754038203,-0.1065835056769946,0.9184653101237851,0.9052614064507543,-3.0734394891826682,-0.0942416821392384,4.4004472650321107,5.6438749752604034,-5.4177822499692887,0.6009021540284837
-4.4461980263215972,-0.1101554216811861,0.9314141054631341,0.9110843476554277,-3.0685569873764886,-0.0984601437863473,4.4511236556085061,5.5950171972618641,-5.3406212430737723,0.6099201942051291
-4.4966816187277541,-0.1139757356130272,0.9472166777635562,0.9192464604424631,-3.0634650506245498,-0.1026991102802200,4.5017515915803470,5.5464807019377274,-5.2666016771052417,0.6190083682423880
-4.5470966958681007,-0.1180544711472598,0.8769622545070317,0.9317871333123491,-3.0581630430213589,-0.1069575090677275,4.5523313907755325,5.4982434346279723,-5.1957280241910944,0.6281674560692594
-4.5974415009884559,-0.1224016519586255,0.8772564470653328,0.9328415336051239,-3.0526503692483091,-0.1112340564043372,4.6028635328596881,5.4502824085483406,-5.1280136843718838,0.6373983137770391
-4.6477142773346340,-0.1270273017218660,0.8887851429524903,0.9348796840797116,-3.0469264817212141,-0.1155272460077105,4.6533486660900261,5.4025735927247185,-5.0634810457126029,0.6467018801791764
-4.6979132681524485,-0.1319414441117231,0.9025675531128369,0.9392831940354953,-3.0409908880888166,-0.1198353378092510,4.7037876140821764,5.3550917929162152,-5.0021615433914306,0.6560791839312479
-4.7480367166877171,-0.1371541028029384,0.9202091919951654,0.9461309924332409,-3.0348431590780729,-0.1241563468964427,4.7541813825828436,5.3078105249638847,-4.9440957147930282,0.6655313512677458
-4.7980828661862507,-0.1426753014702535,0.8549944485875195,0.9565889439358390,-3.0284829366794916,-0.1284880327503388,4.8045311662403085,5.2607018799466418,-4.8893332472744593,0.6750596144193451
-4.8480499598938671,-0.1485150637884102,0.8535101358539161,0.9566797850565399,-3.0219099426628286,-0.1328278888953873,4.8548383553639152,5.2137363804623060,-4.8379330149637614,0.6846653207823787
-4.8979362410563816,-0.1546834134321502,0.8660121059628455,0.9570394186055832,-3.0151239874102291,-0.1371731330897399,4.9051045426626638,5.1668828272778020,-4.7899631005829644,0.6943499429215414
-4.9477399529196076,-0.1611903740762151,0.8812065427108452,0.9596423008244879,-3.0081249790504256,-0.1415206981971653,4.9553315299521543,5.1201081355063227,-4.7455007979120527,0.7041150894976782
-4.9974593387293620,-0.1680459693953468,0.9003149374848588,0.9646827832312516,-3.0009129328736761,-0.1458672238936790,5.0055213348180718,5.0733771593684525,-4.7046325901903625,0.7139625172251018
-5.0470926417314592,-0.1752602230642868,0.8447981005461965,0.9727305853232260,-2.9934879810030335,-0.1502090493722049,5.0556761972234039,5.0266525044749439,-4.6674540993402838,0.7238941439776211
-5.0966381051717109,-0.1828431587577768,0.8364264828287349,0.9723337653226282,-2.9858503822931350,-0.1545422072209857,5.1057985860455748,4.9798943264280906,-4.6340700005757371,0.7339120631797537
-5.1460939722959376,-0.1908048001505587,0.8508104142260176,0.9704829101757588,-2.9780005324228709,-0.1588624186599971,5.1558912055286523,4.9330601143709076,-4.6045938966576330,0.7440185596399634
-5.1954584863499500,-0.1991551709173740,0.8677422089816149,0.9709738958676282,-2.9699389741434938,-0.1631650903271652,5.2059570016346974,4.8861044579127357,-4.5791481456878422,0.7542161270068176
