# x_m,y_m,w_tr_right_m,w_tr_left_m,psi,kappa,s,velocity,acceleration,time
-0.0086697325145553,-0.4405978333241449,0.5593328166399293,1.3406671833600707,0.0011593159202747,-0.0000000000000044,0.0000000000000000,8.0000000000000000,0.0000000000000000,0.0000000000000000
0.0912533138721806,-0.4404819908937685,0.5594391211811796,1.3405608788188206,0.0011593159202752,-0.0001597650809234,0.0999231135357303,8.0000000000000000,0.0000000000000000,0.0124903891919663
0.1911763602589166,-0.4403661484633920,0.5595454257224297,1.3404545742775702,0.0011912443689150,-0.0003196829836478,0.1998462270714607,8.0000000000000000,0.0000000000000000,0.0249807783839326
0.2910993990443912,-0.4402439252575473,0.5596468275873496,1.3403531724126503,0.0012232033584161,0.0001142109272624,0.2997693406069962,8.0000000000000000,0.0000000000000000,0.0374711675758745
0.3910224378225949,-0.4401216959482310,0.5597482247626601,1.3402517752373400,0.0011684197460113,0.0005488968537780,0.3996924541427265,8.0000000000000000,0.0000000000000000,0.0499615567678408
0.4909454893990701,-0.4400104210331534,0.5598539767625351,1.3401460232374651,0.0011135083931377,0.0002179821203121,0.4996155676773920,8.0000000000000000,0.0000000000000000,0.0624519459596740
0.5908685409982400,-0.4398991655430372,0.5599597364846355,1.3400402635153648,0.0011248568416982,-0.0001142199206364,0.5995386812131224,8.0000000000000000,0.0000000000000000,0.0749423351516403
0.6907915900243732,-0.4397856226847656,0.5600583781584553,1.3399416218415450,0.0011363348133333,0.0000803129050108,0.6994617947487787,8.0000000000000000,0.0000000000000000,0.0874327243435973
0.7907146390432399,-0.4396720733667751,0.5601569997303115,1.3398430002696888,0.0011088066106466,0.0002761582241497,0.7993849082845090,8.0000000000000000,0.0000000000000000,0.0999231135355636
0.8906376941687116,-0.4395640319125667,0.5602564802537721,1.3397435197462282,0.0010811456341624,0.0002585362462667,0.8993080218196862,8.0000000000000000,0.0000000000000000,0.1124135027274608
0.9905607493164403,-0.4394560105329653,0.5603559639078686,1.3396440360921316,0.0010571391172691,0.0002403015391415,0.9992311353554166,8.0000000000000000,0.0000000000000000,0.1249038919194271
1.0904838095141600,-0.4393527666879014,0.5604553533323204,1.3395446466676795,0.0010331222782056,0.0000572377494049,1.0991542488906176,8.0000000000000000,0.0000000000000000,0.1373942811113272
1.1904068697352799,-0.4392495449802912,0.5605547423201445,1.3394452576798554,0.0010457003690045,-0.0001267879860890,1.1990773624263480,8.0000000000000000,0.0000000000000000,0.1498846703032935
1.2903299273045103,-0.4391437874526117,0.5606527962826057,1.3393472037173944,0.0010584603788635,0.0000838299950816,1.2990004759618980,8.0000000000000000,0.0000000000000000,0.1623750594952373
1.3902529848588716,-0.4390380157065683,0.5607508427595688,1.3392491572404315,0.0010289472607721,0.0002966681936568,1.3989235894976284,8.0000000000000000,0.0000000000000000,0.1748654486872036
1.4901760484955533,-0.4389381562610667,0.5608492122626834,1.3391507877373170,0.0009991723596694,0.0002559747616460,1.4988467030322317,8.0000000000000000,0.0000000000000000,0.1873558378790290
1.5900991121714287,-0.4388383349135204,0.5609475838473288,1.3390524161526713,0.0009777916704319,0.0002138067566983,1.5987698165679622,8.0000000000000000,0.0000000000000000,0.1998462270709953
1.6900221799873407,-0.4387427483160510,0.5610453721264315,1.3389546278735687,0.0009564438860210,0.0000669507401578,1.6986929301030247,8.0000000000000000,0.0000000000000000,0.2123366162628781
1.7899452478340698,-0.4386471932406364,0.5611431560636040,1.3388568439363961,0.0009644118176118,-0.0000808721242629,1.7986160436387550,8.0000000000000000,0.0000000000000000,0.2248270054548444
1.8898683141145960,-0.4385500142828413,0.5612399964031294,1.3387600035968705,0.0009726058749302,0.0000856380934764,1.8985391571743744,8.0000000000000000,0.0000000000000000,0.2373173946467968
1.9897913803819394,-0.4384528216567489,0.5613368288003475,1.3386631711996526,0.0009472973677369,0.0002547997756765,1.9984622707101047,8.0000000000000000,0.0000000000000000,0.2498077838387631
2.0897144514522861,-0.4383607005063607,0.5614342337293462,1.3385657662706540,0.0009216851011029,0.0002267217892484,2.0983853842446414,8.0000000000000000,0.0000000000000000,0.2622981730305802
2.1896375225671796,-0.4382686263928257,0.5615316439684548,1.3384683560315456,0.0009019878735610,0.0001969471165951,2.1983084977803715,8.0000000000000000,0.0000000000000000,0.2747885622225464
2.2895605971894684,-0.4381804416574427,0.5616301570372149,1.3383698429627853,0.0008823259629189,0.0000620807102294,2.2982316113153241,8.0000000000000000,0.0000000000000000,0.2872789514144155
2.3894836718478087,-0.4380922969009686,0.5617286814419584,1.3382713185580417,0.0008895812778478,-0.0000740287070185,2.3981547248510537,8.0000000000000000,0.0000000000000000,0.2997693406063817
2.4894067451806152,-0.4380026622188442,0.5618210534163779,1.3381789465836222,0.0008971203207115,0.0002124224101515,2.4980778383866600,8.0000000000000000,0.0000000000000000,0.3122597297983325
2.5893298184985429,-0.4379130108136943,0.5619133563355064,1.3380866436644940,0.0008471294606336,0.0005037463325249,2.5980009519223901,8.0000000000000000,0.0000000000000000,0.3247501189902988
2.6892529002878023,-0.4378333666127615,0.5620112730211499,1.3379887269788502,0.0007964485167584,0.0000600284436336,2.6979240654520522,8.0000000000000000,0.0000000000000000,0.3372405081815065
2.7891759821796489,-0.4377538435993958,0.5621092576896879,1.3378907423103124,0.0008351330026568,-0.0003927747422257,2.7978471789877819,8.0000000000000000,0.0000000000000000,0.3497308973734727
2.8890990575098425,-0.4376664684526103,0.5622027328102747,1.3377972671897254,0.0008749430670796,-0.0001025099101344,2.8977702925194357,8.0000000000000000,0.0000000000000000,0.3622212865649295
2.9890221327533322,-0.4375789895508504,0.5622961483434847,1.3377038516565154,0.0008556192214342,0.0001973765276830,2.9976934060551654,8.0000000000000000,0.0000000000000000,0.3747116757568957
3.0889452113887228,-0.4374954762002949,0.5623916740866223,1.3376083259133780,0.0008354981127099,0.0002992324838172,3.0976165195897933,8.0000000000000000,0.0000000000000000,0.3872020649487242
3.1888682900716483,-0.4374120184247268,0.5624872294031744,1.3375127705968259,0.0007958187385264,0.0003986683534122,3.1975396331255235,8.0000000000000000,0.0000000000000000,0.3996924541406904
3.2887913750163484,-0.4373364348448824,0.5625839889925991,1.3374160110074014,0.0007558257464295,0.0000426590510840,3.2974627466565947,8.0000000000000000,0.0000000000000000,0.4121828433320743
3.3887144600550845,-0.4372609695153646,0.5626807666671292,1.3373192333328712,0.0007872934881170,-0.0003204486210509,3.3973858601923248,8.0000000000000000,0.0000000000000000,0.4246732325240406
3.4886375400463749,-0.4371790972280215,0.5627679856646216,1.3372320143353786,0.0008198661943157,0.0001131000582296,3.4973089737247669,8.0000000000000000,0.0000000000000000,0.4371636217155959
3.5885606199568585,-0.4370971223680857,0.5628550516318751,1.3371449483681250,0.0007646908681986,0.0005594608801450,3.5972320872604975,8.0000000000000000,0.0000000000000000,0.4496540109075622
3.6884837083672162,-0.4370262766582747,0.5629486942079805,1.3370513057920197,0.0007080600482305,0.0000651056915052,3.6971552007857413,8.0000000000000000,0.0000000000000000,0.4621444000982177
3.7884067969213899,-0.4369556192507381,0.5630424480585670,1.3369575519414334,0.0007516797413911,-0.0004452419751553,3.7970783143214719,8.0000000000000000,0.0000000000000000,0.4746347892901840
3.8883298787743459,-0.4368760563122924,0.5631264449582697,1.3368735550417306,0.0007970399770960,-0.0001816726030347,3.8970014278500931,8.0000000000000000,0.0000000000000000,0.4871251784812616
3.9882529605072525,-0.4367963338353610,0.5632102670666898,1.3367897329333105,0.0007879863256686,0.0000955316638852,3.9969245413858236,8.0000000000000000,0.0000000000000000,0.4996155676732280
4.0881760437912407,-0.4367185802344283,0.5633030993053114,1.3366969006946889,0.0007779483345027,0.0002301102087024,4.0968476549211879,8.0000000000000000,0.0000000000000000,0.5121059568651485
4.1880991271045183,-0.4366408638115362,0.5633961016811005,1.3366038983188999,0.0007419996686489,0.0003623654983466,4.1967707684569193,8.0000000000000000,0.0000000000000000,0.5245963460571149
4.2880222157158396,-0.4365702944138660,0.5634842400633672,1.3365157599366331,0.0007055309568391,0.0000654065604624,4.2966938819876033,8.0000000000000000,0.0000000000000000,0.5370867352484504
4.3879453044317627,-0.4364998661234309,0.5635722824134166,1.3364277175865835,0.0007289284143150,-0.0002402098614243,4.3966169955233330,8.0000000000000000,0.0000000000000000,0.5495771244404166
4.4878683896340101,-0.4364246208334043,0.5636572496535897,1.3363427503464107,0.0007535359913495,0.0000179657303268,4.4965401090566353,8.0000000000000000,0.0000000000000000,0.5620675136320794
4.5877914747627822,-0.4363492748128504,0.5637421525887044,1.3362578474112961,0.0007253380308927,0.0002878174176315,4.5964632225923667,8.0000000000000000,0.0000000000000000,0.5745579028240458
4.6877145640485303,-0.4362796647773518,0.5638233754633680,1.3361766245366322,0.0006960167663514,0.0000978429641487,4.6963863361245455,8.0000000000000000,0.0000000000000000,0.5870482920155682
4.7876376534239666,-0.4362101784993497,0.5639045189384055,1.3360954810615946,0.0007057844836624,-0.0001020395977121,4.7963094496602752,8.0000000000000000,0.0000000000000000,0.5995386812075344
4.8875607413338447,-0.4361386164228844,0.5639712369863882,1.3360287630136121,0.0007164089949661,-0.0000515041001251,4.8962325631955128,8.0000000000000000,0.0000000000000000,0.6120290703994391
4.9874838292102082,-0.4360670068769130,0.5640376251526842,1.3359623748473159,0.0007160773837511,0.0000045751599490,4.9961556767312434,8.0000000000000000,0.0000000000000000,0.6245194595914054
5.0874069171680159,-0.4359955110716805,0.5641249717284694,1.3358750282715306,0.0007154946665120,-0.0000375363172153,5.0960787902669713,8.0000000000000000,0.0000000000000000,0.6370098487833714
5.1873300051277678,-0.4359240179795209,0.5642128182279702,1.3357871817720299,0.0007235788751248,-0.0000819519069571,5.1960019038027019,8.0000000000000000,0.0000000000000000,0.6495002379753377
5.2872530919162264,-0.4358509065761215,0.5642824778154027,1.3357175221845974,0.0007318724459187,0.0000828504034924,5.2959250173381154,8.0000000000000000,0.0000000000000000,0.6619906271672644
5.3871761786763663,-0.4357777560455640,0.5643516976838442,1.3356483023161561,0.0007070215345755,0.0002529468911430,5.3958481308738460,8.0000000000000000,0.0000000000000000,0.6744810163592307
5.4870992689722247,-0.4357096110017968,0.5644364835514877,1.3355635164485127,0.0006813219640751,-0.0001235434127010,5.4957712444063080,8.0000000000000000,0.0000000000000000,0.6869714055507885
5.5870223593602466,-0.4356415964321591,0.5645216751659208,1.3354783248340796,0.0007317112194829,-0.0005141952742012,5.5956943579420386,8.0000000000000000,-5.5075963610567635,0.6994617947427548
5.6869454422708410,-0.4355633812885263,0.5645798028741472,1.3354201971258530,0.0007840819495952,0.0000685591217004,5.6956174714642174,7.9309096355436788,-8.4585434783216122,0.7120063531902197
5.7868685249868008,-0.4354849006288841,0.5646372261219798,1.3353627738780203,0.0007180099376807,0.0006772954320686,5.7955405849999480,7.8236129535207128,-8.4585406680413637,0.7246913600472462
5.8867916173488251,-0.4354198897241544,0.5646752880385376,1.3353247119614624,0.0006487270129008,0.0003477410343496,5.8954636985103237,7.7148241851572639,-8.4793015628752535,0.7375527710911728
5.9867147099802382,-0.4353552549920667,0.5647128092471773,1.3352871907528230,0.0006485152039768,-0.0000075416342591,5.9953868120460543,7.6042064531643057,-8.4659874743037413,0.7505983894328146
6.0866378023951313,-0.4352902864165259,0.5647860040442083,1.3352139959557920,0.0006502341800534,-0.0006059375982140,6.0953099255817680,7.4921332160588356,-8.4340465142335752,0.7638364478926977
6.1865608948037423,-0.4352253081536272,0.5648602340055137,1.3351397659944866,0.0007696095468206,-0.0012113437580355,6.1952330391174986,7.3787903989988308,-8.4340310680440975,0.7772751711518976
6.2864839687788452,-0.4351364828686156,0.5648976778282027,1.3351023221717975,0.0008923166596857,0.0000410046699460,6.2951561525726207,7.2636794027383216,-8.4311453837962844,0.7909235671954759
6.3864070422317756,-0.4350469820595737,0.5649340795953888,1.3350659204046111,0.0007614149182429,0.0013480788135598,6.3950792661083513,7.1467549189070620,-8.4311295581013095,0.8047917284604892
6.4863301360044643,-0.4349843169861302,0.5650117474962898,1.3349882525037102,0.0006229081951536,-0.0002050580795764,6.4950023795307068,7.0278856308776696,-8.4119575630645969,0.8188905852281655
6.5862532304164505,-0.4349224962150825,0.5650907137068809,1.3349092862931193,0.0008023950017535,-0.0018453634908644,6.5949254930664374,6.9072482552339984,-8.4119308480261967,0.8332317626222798
6.6861762951640067,-0.4348239613924866,0.5651107089442887,1.3348892910557115,0.0009916971259996,0.0003395520746370,6.6948486063969153,6.7844665096470322,-8.3826631863526337,0.8478279056250217
6.7860993590088405,-0.4347243093187454,0.5651289096266272,1.3348710903733729,0.0007345368008127,0.0026454771976636,6.7947717199326458,6.6598605248097185,-8.3826610540781417,0.8626926308402943
6.8860224609631295,-0.4346771670028051,0.5651214665862525,1.3348785334137476,0.0004630084904622,0.0026548686112828,6.8946948330074758,6.5328783115231479,-8.3866904842621679,0.8778408293022606
6.9859455641904979,-0.4346317788223475,0.5651131668943562,1.3348868331056440,0.0002039713267010,0.0025930211573276,6.9946179465432055,6.4033155928997942,-8.3936693539857625,0.8932894402729983
7.0858686771736306,-0.4346364041043832,0.5651591981562266,1.3348408018437736,-0.0000551970033908,0.0021923652624872,7.0945410596333867,6.2709654311018035,-8.4137767367308030,0.9090572953333295
7.1857917905040427,-0.4346428097351902,0.5652071634582928,1.3347928365417077,-0.0002341645983928,0.0017761785228312,7.1944641731691172,6.1354336360045938,-8.3489832539990161,0.9251656137898365
7.2857148956744808,-0.4346832010147341,0.5652063551204285,1.3347936448795719,-0.0004101595794257,0.0041978209046486,7.2943872865031096,5.9979190643081077,-8.2688428800153915,0.9416364303567063
7.3856380005600908,-0.4347247785772532,0.5652038443187055,1.3347961556812946,-0.0010730832672616,0.0067348496523302,7.3943104000388393,5.8585438506656988,-8.2687181576429047,0.9584918980037285
7.4855609611369367,-0.4348976525659242,0.5651972313200483,1.3348027686799520,-0.0017560938493264,0.0042429001818134,7.4942335101578594,5.7157732617865697,-8.3613072266989246,0.9757582488645525
7.5854839159978056,-0.4350757271209258,0.5651904558360296,1.3348095441639705,-0.0019210108459411,0.0015464545176359,7.5941566236935891,5.5676824871317123,-8.4520571855238931,0.9934696868777356
7.6854068173908017,-0.4352815590955456,0.5649519267567731,1.3350480732432271,-0.0020651469497885,0.0011793010343133,7.6940797370838165,5.4138689068404302,-8.4654324668511300,1.0116680469828616
7.7853297167658839,-0.4354884386535253,0.5647046511436771,1.3352953488563233,-0.0021566897080585,0.0009063321738741,7.7940028506195462,5.2553013045328960,-8.4749643003702158,1.0303992344240764
7.8852525788881769,-0.4357125650608138,0.5643033995839812,1.3356966004160193,-0.0022462740151594,0.0000193428496804,7.8939259640986466,5.0916109594499384,-8.4783999816204343,1.0497138107787882
7.9851754395931041,-0.4359373476627802,0.5638962896674988,1.3361037103325017,-0.0021605553035868,-0.0008914529976360,7.9938490776343771,4.9224105796307907,-8.4499164834967040,1.0696704512045694
8.0850983386662190,-0.4361443435488490,0.5630178550020540,1.3369821449908057,-0.0020681204970248,0.0022218417318529,8.0937721911090517,4.7477828496254126,-8.3855338274179463,1.0903366590122370
8.1850212392190986,-0.4363506534464843,0.5621212425387495,1.3378787574466939,-0.0026045819907119,0.0054858732620619,8.1936953046447822,4.5678906171019040,-8.3854653389616374,1.1117893460117598
8.2849438565935998,-0.4366648587627996,0.5610508007930667,1.3389016739317379,-0.0031644515588165,0.0027131083026597,8.2936184160252413,4.3806188051145831,-8.4479103965168445,1.1341222523463903
8.3848664634908197,-0.4369830560888625,0.5599739275584646,1.3399292635245164,-0.0031467864427872,-0.0002848150850739,8.3935415295609719,4.1834839663062944,-8.1689418700271137,1.1574575896730703
8.4847890940470272,-0.4372937311224286,0.5588158129408649,1.3406647365600015,-0.0031075323386549,-0.0208619325230156,8.4934646430845646,3.9835920831140759,-7.8933829670412523,1.1819273296189068
8.5847117256174101,-0.4376040837026868,0.5576542158007900,1.3413876876216031,0.0010223920611037,-0.0424458737289044,8.5933877566202952,3.7804157284425490,-7.8899935563175507,1.2076674153996028
8.6846333285529482,-0.4370894118924217,0.5559576763286762,1.3420394066859385,0.0053751075226232,-0.0165505122762873,8.6933106850215367,3.5657762909957573,-8.2893012177828247,1.2348714220841113
8.7845548755758660,-0.4365298949389050,0.5542320594549883,1.3426872538536871,0.0043299464315489,0.0118635759525201,8.7932337985572673,3.3253834341312731,-7.9058580464066317,1.2638717986597356
8.8844775069214332,-0.4362240918976236,0.5530820078139265,1.3372204564377523,0.0030042167980127,-0.0626849764021023,8.8931568978412781,3.0786716789878610,-7.3616793475227000,1.2950779945837250
8.9844001862431337,-0.4359295144933850,0.5519574222040292,1.3314831150057773,0.0168573015662039,-0.1421654120097117,8.9930800113770086,2.8296670236071289,-5.5814330504936986,1.3289024310507283
9.0842742085356960,-0.4328557395805290,0.5513236249324379,1.3192585438436935,0.0314151817707164,0.4234958326377360,9.0930013225228805,2.6251870881011818,-1.7971751068702624,1.3655381720255053
9.1841459624554176,-0.4296523994997184,0.5507127080330712,1.3067315404122453,-0.0677759794623412,1.0260815386337268,9.1929244360586129,2.5558655252259235,-1.5331987308641508,1.4041106865291033
9.2825524807640551,-0.4463148585292269,0.5503543601534494,1.3243536245570147,-0.1735244221783947,1.1189132213704476,9.2927316521631518,2.4952755336662236,-1.5193424004199658,1.4436293675324132
9.3808735205446609,-0.4641362432996453,0.5500107465785850,1.3437345382088672,-0.2912568860055187,1.1681522209967778,9.3926547656988841,2.4336731790771795,-1.5222164653587216,1.4841747736054725
9.4727060306376494,-0.5033194914723599,0.5500000000000000,1.3769965130673145,-0.4068811377490156,1.1967773797155274,9.4924973259993060,2.3704010555376236,-1.7131435252968068,1.5257405594049616
9.5643290591810484,-0.5431924053263761,0.5500000000000000,1.4107066366361039,-0.5303319256962546,1.2368094881301357,9.5924204395350348,2.2970493887009513,-1.1197696746558361,1.5685575597050174
9.6437881176710700,-0.6036356929461371,0.5500000000000000,1.4158899199689898,-0.6539445230632888,1.4606073585681694,9.6922559692546990,2.2478545986929075,0.0000000000000000,1.6124905140629429
9.7228745350495274,-0.6647091503962850,0.5500000000000002,1.4201992885019965,-0.8221008699726777,1.6822188469098329,9.7921790827904296,2.2478545986929075,0.0000000000000000,1.6569431728754100
9.7779110814874244,-0.7479838940649319,0.5500000000000002,1.3867725169349381,-0.9899533891622898,1.1172272778108150,9.8919974397038235,2.2478545986929075,2.8548178176481129,1.7013492287526168
9.8324778917041211,-0.8316922678482607,0.5500000000000000,1.3526086922711267,-1.0452574892684821,0.5542943952538055,9.9919205532395541,2.3713656121944187,5.3829948289780685,1.7446132902061997
9.8780218737739780,-0.9206065889875131,0.5552229783185156,1.3214021531596809,-1.1007142232745553,0.6045133054763761,10.0918205572757582,2.5882228028092475,4.4504274640450623,1.7848988928316063
9.9229831011771950,-1.0098278667747789,0.5607328486002588,1.2905928179660313,-1.1660451146038877,0.6368713328029563,10.1917302584043092,2.7546649583272056,3.6673063059377884,1.8222980318722135
