# x_m,y_m,w_tr_right_m,w_tr_left_m,psi,kappa,s,velocity,acceleration,time
0.0057265552590233,-0.0371650398958621,0.9628402379906619,0.9371597620093383,-0.0002067120149618,0.0047207025811679,0.0000000000000000,8.0000000000000000,0.0000000000000000,0.0000000000000000
0.0577124658227293,-0.0371757860083374,0.9628324115699637,0.9371675884300364,-0.0004521220423874,0.0070260541238873,0.0519859116743812,8.0000000000000000,0.0000000000000000,0.0064982389592977
0.1096837741229720,-0.0372120412491783,0.9628343930806197,0.9371656069193804,-0.0009371211579228,0.0092198635357468,0.1039572326204700,8.0000000000000000,0.0000000000000000,0.0129946540775588
0.1616408171220168,-0.0372731794937582,0.9627490773271152,0.9372509226728849,-0.0014103277071018,0.0089951797261014,0.1559143115904192,8.0000000000000000,0.0000000000000000,0.0194892889488024
0.2135839317821277,-0.0373585746174501,0.9626677147596245,0.9373322852403756,-0.0018717227046210,0.0087699544977988,0.2078574964458031,8.0000000000000000,0.0000000000000000,0.0259821870557254
0.2655134550655707,-0.0374676004956274,0.9625407532596399,0.9374592467403602,-0.0023212876347605,0.0085442011269703,0.2597871341788719,8.0000000000000000,0.0000000000000000,0.0324733917723590
0.3174297239346091,-0.0375996310036632,0.9624635699670803,0.9375364300329199,-0.0027590044512935,0.0083179329046209,0.3117035709338856,8.0000000000000000,0.0000000000000000,0.0389629463667357
0.3693330753515082,-0.0377540400169309,0.9623302293897384,0.9376697706102617,-0.0031848555773906,0.0080911631360528,0.3636071520285413,8.0000000000000000,0.0000000000000000,0.0454508940035677
0.4212238462785325,-0.0379302014108036,0.9621069291372248,0.9378930708627753,-0.0035988239055207,0.0078639051402947,0.4154982219754753,8.0000000000000000,0.0000000000000000,0.0519372777469344
0.4731023736779472,-0.0381274890606545,0.9619223696737684,0.9380776303262317,-0.0040008927973474,0.0076361722495468,0.4673771245038500,8.0000000000000000,0.0000000000000000,0.0584221405629812
0.5249689945120168,-0.0383452768418569,0.9616643346092293,0.9383356653907708,-0.0043910460836227,0.0074079778086799,0.5192442025810156,8.0000000000000000,0.0000000000000000,0.0649055253226269
0.5768240457430061,-0.0385829386297841,0.9614184058609623,0.9385815941390379,-0.0047692680640807,0.0071793351747129,0.5710997984342497,8.0000000000000000,0.0000000000000000,0.0713874748042812
0.6286678643331801,-0.0388398482998092,0.9611797089998894,0.9388202910001108,-0.0051355435073259,0.0069502577163215,0.6229442535725712,8.0000000000000000,0.0000000000000000,0.0778680316965714
0.6805007872448033,-0.0391153797273055,0.9609089641397114,0.9390910358602887,-0.0054898576507239,0.0067207588133876,0.6747779088086223,8.0000000000000000,0.0000000000000000,0.0843472386010778
0.7323231514401399,-0.0394089067876463,0.9607289668354699,0.9392710331645302,-0.0058321962002901,0.0064908518565413,0.7266011042806236,8.0000000000000000,0.0000000000000000,0.0908251380350780
0.7841352938814556,-0.0397198033562047,0.9603396673307559,0.9396603326692442,-0.0061625453305798,0.0062605502467338,0.7784141794743962,8.0000000000000000,0.0000000000000000,0.0973017724342995
0.8359375515310143,-0.0400474433083539,0.9599656575260056,0.9400343424739945,-0.0064808916845784,0.0060298673948252,0.8302174732454443,8.0000000000000000,0.0000000000000000,0.1037771841556805
0.8877302613510815,-0.0403912005194673,0.9596643179024454,0.9403356820975547,-0.0067872223735936,0.0057988167211916,0.8820113238411074,8.0000000000000000,0.0000000000000000,0.1102514154801384
0.9395137603039214,-0.0407504488649180,0.9593323383530421,0.9406676616469580,-0.0070815249771496,0.0055674116553357,0.9337960689227671,8.0000000000000000,0.0000000000000000,0.1167245086153459
0.9912883853517992,-0.0411245622200793,0.9589052536124736,0.9410947463875265,-0.0073637875428829,0.0053356656355294,0.9855720455881168,8.0000000000000000,0.0000000000000000,0.1231965056985146
1.0430544734569787,-0.0415129144603245,0.9585075532367753,0.9414924467632249,-0.0076339985864426,0.0051035921084706,1.0373395903934841,8.0000000000000000,0.0000000000000000,0.1296674487991855
1.0948123615817256,-0.0419148794610266,0.9580905857607392,0.9419094142392609,-0.0078921470913935,0.0048712045289478,1.0890990393762119,8.0000000000000000,0.0000000000000000,0.1361373799220265
1.1465623866883046,-0.0423298310975590,0.9576706680691064,0.9423293319308937,-0.0081382225091235,0.0046385163595165,1.1408507280770863,8.0000000000000000,0.0000000000000000,0.1426063410096358
1.1983048857389800,-0.0427571432452950,0.9572569947978672,0.9427430052021329,-0.0083722147587548,0.0044055410701953,1.1925949915628173,8.0000000000000000,0.0000000000000000,0.1490743739453522
1.2500401956960172,-0.0431961897796077,0.9568539267907989,0.9431460732092012,-0.0085941142270609,0.0041722921381826,1.2443321644485676,8.0000000000000000,0.0000000000000000,0.1555415205560710
1.3017686535216795,-0.0436463445758703,0.9563999705884386,0.9436000294115615,-0.0088039117683887,0.0039387830475709,1.2960625809205226,8.0000000000000000,0.0000000000000000,0.1620078226150653
1.3534905961782333,-0.0441069815094561,0.9559319914255876,0.9440680085744125,-0.0090015987045862,0.0037050272890705,1.3477865747585127,8.0000000000000000,0.0000000000000000,0.1684733218448141
1.4052063606279428,-0.0445774744557384,0.9557183622436330,0.9442816377563671,-0.0091871668249353,0.0034710383597737,1.3995044793586640,8.0000000000000000,0.0000000000000000,0.1749380599198330
1.4569162838330718,-0.0450571972900903,0.9549480744088863,0.9450519255911138,-0.0093606083860942,0.0032368297629011,1.4512166277560969,8.0000000000000000,0.0000000000000000,0.1814020784695121
1.5086207027558864,-0.0455455238878851,0.9544777455638740,0.9455222544361261,-0.0095219161120428,0.0030024150075527,1.5029233526476624,8.0000000000000000,0.0000000000000000,0.1878654190809578
1.5603199543586508,-0.0460418281244961,0.9540073749040693,0.9459926250959309,-0.0096710831940372,0.0027678076085048,1.5546249864147033,8.0000000000000000,0.0000000000000000,0.1943281233018379
1.6120143756036298,-0.0465454838752964,0.9535865659437595,0.9464134340562407,-0.0098081032905721,0.0025330210859821,1.6063218611458574,8.0000000000000000,0.0000000000000000,0.2007902326432322
1.6637043034530872,-0.0470558650156592,0.9529635392224539,0.9470364607775462,-0.0099329705273496,0.0022980689654490,1.6580143086598855,8.0000000000000000,0.0000000000000000,0.2072517885824857
1.7153900748692898,-0.0475723454209580,0.9524642558724986,0.9475357441275015,-0.0100456794972568,0.0020629647774153,1.7097026605285319,8.0000000000000000,0.0000000000000000,0.2137128325660665
1.7670720268145002,-0.0480942989665657,0.9519152277633317,0.9480847722366684,-0.0101462252603512,0.0018277220572370,1.7613872480994006,8.0000000000000000,0.0000000000000000,0.2201734060124251
1.8187504962509844,-0.0486210995278557,0.9513898369603675,0.9486101630396326,-0.0102346033438552,0.0015923543449320,1.8130684025188697,8.0000000000000000,0.0000000000000000,0.2266335503148587
1.8704258201410067,-0.0491521209802013,0.9508820720852993,0.9491179279147008,-0.0103108097421580,0.0013568751849930,1.8647464547550130,8.0000000000000000,0.0000000000000000,0.2330933068443766
1.9220983354468324,-0.0496867371989756,0.9504169602151408,0.9495830397848594,-0.0103748409168272,0.0011212981262230,1.9164217356205504,8.0000000000000000,0.0000000000000000,0.2395527169525688
1.9737683791307252,-0.0502243220595518,0.9498379431897038,0.9501620568102963,-0.0104266937966297,0.0008856367215622,1.9680945757958079,8.0000000000000000,0.0000000000000000,0.2460118219744760
2.0254362881549510,-0.0507642494373033,0.9491952957185760,0.9508047042814242,-0.0104663657775612,0.0006499045279066,2.0197653058517004,8.0000000000000000,0.0000000000000000,0.2524706632314626
2.0771023994817734,-0.0513058932076032,0.9486591103204107,0.9513408896795894,-0.0104938547228841,0.0004141151059531,2.0714342562727173,8.0000000000000000,0.0000000000000000,0.2589292820340897
2.1287670500734586,-0.0518486272458247,0.9478637836809758,0.9521362163190243,-0.0105091589631761,0.0001782820200328,2.1231017574799282,8.0000000000000000,0.0000000000000000,0.2653877196849910
2.1804305768922698,-0.0523918254273412,0.9473912920527816,0.9526087079472185,-0.0105122772963868,-0.0000575811620383,2.1747681398539869,8.0000000000000000,0.0000000000000000,0.2718460174817484
2.2320933169004733,-0.0529348616275258,0.9470499521641553,0.9529500478358448,-0.0105032089879062,-0.0002934608691341,2.2264337337581503,8.0000000000000000,0.0000000000000000,0.2783042167197688
2.2837556070603315,-0.0534771097217518,0.9464547290965135,0.9535452709034866,-0.0104819537706387,-0.0005293435269689,2.2780988695612923,8.0000000000000000,0.0000000000000000,0.2847623586951615
2.3354177843341120,-0.0540179435853923,0.9459129165694108,0.9540870834305893,-0.0104485118450905,-0.0007652155582572,2.3297638776609295,8.0000000000000000,0.0000000000000000,0.2912204847076162
2.3870801856840771,-0.0545567370938207,0.9454145013263319,0.9545854986736683,-0.0104028838794639,-0.0010010633828827,2.3814290885062324,8.0000000000000000,0.0000000000000000,0.2976786360632790
2.4387431480724930,-0.0550928641224102,0.9448972263067714,0.9551027736932287,-0.0103450710097617,-0.0012368734180394,2.4330948326210486,8.0000000000000000,0.0000000000000000,0.3041368540776311
2.4904070084616237,-0.0556256985465339,0.9443727104641962,0.9556272895358039,-0.0102750748399023,-0.0014726320784220,2.4847614406269076,8.0000000000000000,0.0000000000000000,0.3105951800783635
2.5420721038137346,-0.0561546142415652,0.9430384641072523,0.9569615358927478,-0.0101928974418410,-0.0017083257763776,2.5364292432660287,8.0000000000000000,0.0000000000000000,0.3170536554082536
2.5937387710910906,-0.0566789850828772,0.9431807318523965,0.9568192681476037,-0.0100985413557042,-0.0019439409220706,2.5880985714243105,8.0000000000000000,0.0000000000000000,0.3235123214280388
2.6454073472559547,-0.0571981849458432,0.9427824514135681,0.9572175485864320,-0.0099920095899297,-0.0021794639236750,2.6397697561543132,8.0000000000000000,0.0000000000000000,0.3299712195192891
2.6970781692705943,-0.0577115877058364,0.9422531172450369,0.9577468827549632,-0.0098733056214175,-0.0024148811875426,2.6914431286982312,8.0000000000000000,0.0000000000000000,0.3364303910872789
2.7487515740972714,-0.0582185672382300,0.9417270709309735,0.9582729290690266,-0.0097424333956888,-0.0026501791183886,2.7431190205108349,8.0000000000000000,0.0000000000000000,0.3428898775638544
2.8004278986982536,-0.0587184974183974,0.9412077042054865,0.9587922957945136,-0.0095993973270538,-0.0028853441194867,2.7947977632824146,8.0000000000000000,0.0000000000000000,0.3493497204103018
2.8521074800358015,-0.0592107521217116,0.9407525714692626,0.9592474285307375,-0.0094442022987880,-0.0031203625928659,2.8464796889616806,8.0000000000000000,0.0000000000000000,0.3558099611202101
2.9037906550721848,-0.0596947052235460,0.9402824173741855,0.9597175826258146,-0.0092768536633159,-0.0033552209395158,2.8981651297786670,8.0000000000000000,0.0000000000000000,0.3622706412223334
2.9554777607696656,-0.0601697305992737,0.9398144653494145,0.9601855346505856,-0.0090973572424040,-0.0035899055596079,2.9498544182675808,8.0000000000000000,0.0000000000000000,0.3687318022834476
3.0071691340905087,-0.0606352021242681,0.9393591196683061,0.9606408803316940,-0.0089057193273596,-0.0038244028526995,3.0015478872896471,8.0000000000000000,0.0000000000000000,0.3751934859112059
3.0588651119969787,-0.0610904936739022,0.9388680158023855,0.9611319841976146,-0.0087019466792400,-0.0040586992179871,3.0532458700559157,8.0000000000000000,0.0000000000000000,0.3816557337569895
3.1105660314513406,-0.0615349791235495,0.9382389498871644,0.9617610501128357,-0.0084860465290639,-0.0042927810545483,3.1049487001500351,8.0000000000000000,0.0000000000000000,0.3881185875187544
3.1622722294158612,-0.0619680323485831,0.9377972408851484,0.9622027591148518,-0.0082580265780350,-0.0045266347615748,3.1566567115509958,8.0000000000000000,0.0000000000000000,0.3945820889438745
3.2139840428528008,-0.0623890272243761,0.9374075066873567,0.9625924933126434,-0.0080178949977681,-0.0047602467386559,3.2083702386558288,8.0000000000000000,0.0000000000000000,0.4010462798319786
3.2657018087244274,-0.0627973376263020,0.9370672554851629,0.9629327445148372,-0.0077656604305230,-0.0049936033860480,3.2600896163022846,8.0000000000000000,0.0000000000000000,0.4075112020377856
3.3174258639930052,-0.0631923374297338,0.9368020240877614,0.9631979759122388,-0.0075013319894437,-0.0052266911049751,3.3118151797914490,8.0000000000000000,0.0000000000000000,0.4139768974739311
3.3691565456207986,-0.0635734005100449,0.9364173283796874,0.9635826716203127,-0.0072249192588016,-0.0054594962979099,3.3635472649103315,8.0000000000000000,0.0000000000000000,0.4204434081137914
3.4208941905700723,-0.0639399007426084,0.9360468169292301,0.9639531830707700,-0.0069364322942471,-0.0056920053688979,3.4152862079544022,8.0000000000000000,0.0000000000000000,0.4269107759943003
3.4726391358030910,-0.0642912120027975,0.9356966307135501,0.9643033692864500,-0.0066358816230609,-0.0059242047239138,3.4670323457500838,8.0000000000000000,0.0000000000000000,0.4333790432187605
3.5243917182821201,-0.0646267081659857,0.9353661773785619,0.9646338226214383,-0.0063232782444116,-0.0061560807711758,3.5187860156771933,8.0000000000000000,0.0000000000000000,0.4398482519596492
3.5761522749694250,-0.0649457631075459,0.9350367573489522,0.9649632426510479,-0.0059986336296174,-0.0063876199214929,3.5705475556913338,8.0000000000000000,0.0000000000000000,0.4463184444614167
3.6279211428272684,-0.0652477507028515,0.9347224472375580,0.9652775527624421,-0.0056619597224115,-0.0066188085887018,3.6223173043462245,8.0000000000000000,0.0000000000000000,0.4527896630432781
3.6796986588179159,-0.0655320448272758,0.9344345662372426,0.9655654337627575,-0.0053132689392030,-0.0068496331900256,3.6740956008159902,8.0000000000000000,0.0000000000000000,0.4592619501019988
3.7314851599036309,-0.0657980193561919,0.9341654300468846,0.9658345699531156,-0.0049525741693504,-0.0070800801464484,3.7258827849173759,8.0000000000000000,0.0000000000000000,0.4657353481146720
3.7832809830466823,-0.0660450481649731,0.9339157434725310,0.9660842565274691,-0.0045798887754289,-0.0073101358832102,3.7776791971319166,8.0000000000000000,0.0000000000000000,0.4722098996414896
3.8350864652093293,-0.0662725051289925,0.9336861977636824,0.9663138022363177,-0.0041952265934997,-0.0075397868302252,3.8294851786280222,8.0000000000000000,0.0000000000000000,0.4786856473285028
3.8869019433538412,-0.0664797641236236,0.9334774707367972,0.9665225292632029,-0.0037986019333811,-0.0077690194225446,3.8813010712830294,8.0000000000000000,0.0000000000000000,0.4851626339103787
3.9387277544424815,-0.0666661990242394,0.9332902266276262,0.9667097733723740,-0.0033900295789173,-0.0079978201008323,3.9331272177051551,8.0000000000000000,0.0000000000000000,0.4916409022131444
3.9905642354375126,-0.0668311837062131,0.9331251156755498,0.9668748843244503,-0.0029695247882497,-0.0082261753118966,3.9849639612553966,8.0000000000000000,0.0000000000000000,0.4981204951569246
4.0424117233012034,-0.0669740920449182,0.9329827734334801,0.9670172265665200,-0.0025371032940795,-0.0084540715092116,4.0368116460693670,8.0000000000000000,0.0000000000000000,0.5046014557586709
4.0942705549958136,-0.0670942979157276,0.9328638197871895,0.9671361802128107,-0.0020927813039355,-0.0086814951534371,4.0886706170790319,8.0000000000000000,0.0000000000000000,0.5110838271348790
4.1461410674836126,-0.0671911751940148,0.9327688576576628,0.9672311423423373,-0.0016365755004339,-0.0089084327130102,4.1405412200344047,8.0000000000000000,0.0000000000000000,0.5175676525043006
4.1980235977268627,-0.0672640977551529,0.9326984713486347,0.9673015286513654,-0.0011685030415369,-0.0091348706647345,4.1924238015251296,8.0000000000000000,0.0000000000000000,0.5240529751906412
4.2499184826878293,-0.0673124394745152,0.9326791052729242,0.9673208947270759,-0.0006885815608040,-0.0093607954943735,4.2443187090020080,8.0000000000000000,0.0000000000000000,0.5305398386252510
4.3018260593287758,-0.0673355742274748,0.9326536353844136,0.9673463646155865,-0.0001968291676426,-0.0095861936972996,4.2962262907984332,8.0000000000000000,0.0000000000000000,0.5370282863498042
4.3537466646119700,-0.0673328758894050,0.9326529176148191,0.9673470823851811,0.0003067355524529,-0.0098110517791654,4.3481468961517447,8.0000000000000000,0.0000000000000000,0.5435183620189681
4.4056806354996727,-0.0673037183356791,0.9326782246151712,0.9673217753848289,0.0008220935376650,-0.0100353562565468,4.4000808752244840,8.0000000000000000,0.0000000000000000,0.5500101094030605
4.4576283089541526,-0.0672474754416704,0.9327383088384741,0.9672616911615260,0.0013492252496250,-0.0102590936576625,4.4520285791255843,8.0000000000000000,0.0000000000000000,0.5565035723906980
4.5095900219376706,-0.0671635210827518,0.9328272888041373,0.9671727111958628,0.0018881106731932,-0.0104822505231176,4.5039903599314410,8.0000000000000000,0.0000000000000000,0.5629987949914301
4.5615661114124961,-0.0670512291342969,0.9329441808892702,0.9670558191107299,0.0024387293162502,-0.0107048134066474,4.5559665707069179,8.0000000000000000,0.0000000000000000,0.5694958213383647
4.6135569143408883,-0.0669099734716787,0.9330892846733072,0.9669107153266929,0.0030010602094959,-0.0109267688758723,4.6079575655262239,8.0000000000000000,0.0000000000000000,0.5759946956907780
4.6655627676851168,-0.0667391279702706,0.9331535121731703,0.9668464878268298,0.0035750819062581,-0.0111481035131377,4.6599636994937352,8.0000000000000000,0.0000000000000000,0.5824954624367169
4.7175840084074432,-0.0665380665054457,0.9330915312223731,0.9669084687776270,0.0041607724823183,-0.0113688039163102,4.7119853287646727,8.0000000000000000,0.0000000000000000,0.5889981660955841
4.7696209734701345,-0.0663061629525772,0.9334847246308705,0.9665152753691296,0.0047581095357410,-0.0115888566996387,4.7640228105657130,8.0000000000000000,0.0000000000000000,0.5955028513207141
4.8216739998354532,-0.0660427911870385,0.9339551612079825,0.9660448387920176,0.0053670701867257,-0.0118082484946541,4.8160765032154709,8.0000000000000000,0.0000000000000000,0.6020095629019339
4.8737434244656646,-0.0657473250842027,0.9342429384565971,0.9657570615434030,0.0059876310774662,-0.0120269659510299,4.8681467661448936,8.0000000000000000,0.0000000000000000,0.6085183457681117
4.9258295843230346,-0.0654191385194430,0.9345587288860357,0.9654412711139644,0.0066197683720273,-0.0122449957375643,4.9202339599175362,8.0000000000000000,0.0000000000000000,0.6150292449896920
4.9779328163698278,-0.0650576053681328,0.9349233843721582,0.9650766156278420,0.0072634577562396,-0.0124623245431133,4.9723384462497267,8.0000000000000000,0.0000000000000000,0.6215423057812158
5.0300534575683091,-0.0646620995056452,0.9353329984272531,0.9646670015727470,0.0079186744376070,-0.0126789390775496,5.0244605880306255,8.0000000000000000,0.0000000000000000,0.6280575735038282
5.0821918448807404,-0.0642319948073534,0.9356954967100938,0.9643045032899064,0.0085853931452335,-0.0128948260728203,5.0766007493421572,8.0000000000000000,0.0000000000000000,0.6345750936677697
5.1343483152693912,-0.0637666651486307,0.9361171561474561,0.9638828438525441,0.0092635881297718,-0.0131099722839706,5.1287592954788499,8.0000000000000000,0.0000000000000000,0.6410949119348562
5.1865232056965205,-0.0632654844048504,0.9366999397286121,0.9633000602713880,0.0099532331633867,-0.0133243644901847,5.1809365929675169,8.0000000000000000,0.0000000000000000,0.6476170741209396
5.2387168531243997,-0.0627278264513856,0.9372537255344928,0.9627462744655073,0.0106543015397413,-0.0135379894959088,5.2331330095868660,8.0000000000000000,0.0000000000000000,0.6541416261983583
5.2909295945152879,-0.0621530651636095,0.9378010937465177,0.9621989062534825,0.0113667660740062,-0.0137508341319710,5.2853489143869332,8.0000000000000000,0.0000000000000000,0.6606686142983667
