# x_m,y_m,w_tr_right_m,w_tr_left_m,psi,kappa,s,velocity,acceleration,time
0.0022347165147534,0.1367446684723480,1.1367782871297982,0.7632217128702018,-0.0177420965352140,0.0114326327933699,0.0000000000000000,8.0000000000000000,0.0000000000000000,0.0000000000000000
0.1021934805034180,0.1349710043223715,1.1350124733523830,0.7649875266476173,-0.0188850682671144,0.0169694141614787,0.0999744986617011,8.0000000000000000,0.0000000000000000,0.0124968123327126
0.2021479288261031,0.1329688449224691,1.1330079744678072,0.7669920255321930,-0.0211351138818905,0.0219178702197739,0.1999489973188833,8.0000000000000000,0.0000000000000000,0.0249936246648604
0.3020976990739285,0.1307453766925269,1.1307855041233843,0.7692144958766157,-0.0232675244410228,0.0206433467459980,0.2999234959851064,8.0000000000000000,0.0000000000000000,0.0374904369981383
0.4020426995757637,0.1283169489505481,1.1283552036943363,0.7716447963056640,-0.0252627303656534,0.0104373486917009,0.3998979946665694,8.0000000000000000,0.0000000000000000,0.0499872493333212
0.5019828015494535,0.1256946587334551,1.1257389734037091,0.7742610265962911,-0.0253544618471540,0.0000687436332258,0.4998724933574565,8.0000000000000000,0.0000000000000000,0.0624840616696821
0.6019273547924072,0.1232478948277943,1.1232990439005166,0.7767009560994834,-0.0252764755861892,0.0073891101438906,0.5998469919885757,8.0000000000000000,0.0000000000000000,0.0749808739985720
0.7018678645049432,0.1206411925535594,1.1206910706441264,0.7793089293558738,-0.0268319070111518,0.0149429843438462,0.6998214906287189,8.0000000000000000,0.0000000000000000,0.0874776863285899
0.8018043226489162,0.1178835271897708,1.1179348789400201,0.7820651210599801,-0.0282643103225850,0.0136362070971896,0.7997959893002337,8.0000000000000000,0.0000000000000000,0.0999744986625292
0.9017369545986710,0.1149905257687231,1.1150412551286446,0.7849587448713553,-0.0295584529478654,0.0075220114270709,0.8997704879767828,8.0000000000000000,0.0000000000000000,0.1124713109970979
1.0016659403780732,0.1119742058702261,1.1120295422360398,0.7879704577639604,-0.0297683289654689,0.0013136683553133,0.9997449866483443,8.0000000000000000,0.0000000000000000,0.1249681233310430
1.1015973491562783,0.1090392577803637,1.1090994920869153,0.7909005079130849,-0.0298211196183258,0.0045781627601510,1.0997194853001850,8.0000000000000000,0.0000000000000000,0.1374649356625231
1.2015260158857428,0.1060123872666769,1.1060727615649184,0.7939272384350815,-0.0306837280188255,0.0079758101716949,1.1996939839457648,8.0000000000000000,0.0000000000000000,0.1499617479932206
1.3014522125481276,0.1029050402841074,1.1029670319412517,0.7970329680587485,-0.0314158748649500,0.0066168236860548,1.2996684826175744,8.0000000000000000,0.0000000000000000,0.1624585603271968
1.4013763399362669,0.0997318481508694,1.0997948078516722,0.8002051921483283,-0.0320067552803827,0.0045737669344639,1.3996429812789606,8.0000000000000000,0.0000000000000000,0.1749553726598701
1.5012987946712884,0.0965064145007436,1.0965711776508549,0.8034288223491454,-0.0323303949774820,0.0025259258679008,1.4996174799398880,8.0000000000000000,0.0000000000000000,0.1874521849924860
1.6012208471884479,0.0932685442080078,1.0933356031327250,0.8066643968672751,-0.0325118116249885,0.0017542141233456,1.5995919786046704,8.0000000000000000,0.0000000000000000,0.1999489973255838
1.7011421250508278,0.0900068555775116,1.0900756160733438,0.8099243839266564,-0.0326811483325384,0.0010050260421464,1.6995664772649450,8.0000000000000000,0.0000000000000000,0.2124458096581181
1.8010630752569383,0.0867351445283441,1.0868054950812187,0.8131945049187813,-0.0327127655744013,-0.0004074938441788,1.7995409759297609,8.0000000000000000,0.0000000000000000,0.2249426219912201
1.9009841466626225,0.0834671374341417,1.0835401621795082,0.8164598378204919,-0.0325996703469811,0.0016142009057046,1.8995154745843057,8.0000000000000000,0.0000000000000000,0.2374394343230382
2.0009058343922859,0.0802180276320242,1.0802895913255239,0.8197104086744762,-0.0330355234270494,0.0037063334438157,1.9994899732989808,8.0000000000000000,0.0000000000000000,0.2499362466623726
2.1008240190498015,0.0768629199784094,1.0769338545556073,0.8230661454443927,-0.0333407480028285,-0.0011068155730537,2.0994644719104802,8.0000000000000000,0.0000000000000000,0.2624330589888100
2.2007437047007143,0.0735528136774944,1.0736269513467851,0.8263730486532151,-0.0328142167630419,-0.0059800091736157,2.1994389705803941,8.0000000000000000,0.0000000000000000,0.2749298713225493
2.3006653671318520,0.0703029279548148,1.0703786432664735,0.8296213567335264,-0.0321450511646033,-0.0074282189685400,2.2994134692298633,8.0000000000000000,0.0000000000000000,0.2874266836537329
2.4005893933187701,0.0671265502107618,1.0672065129243538,0.8327934870756464,-0.0313289518283884,-0.0013328634582951,2.3993879679031589,8.0000000000000000,0.0000000000000000,0.2999234959878949
2.5005162273467372,0.0640397607419200,1.0641151901265860,0.8358848098734142,-0.0318785464522300,0.0048576324776694,2.4993624667920149,8.0000000000000000,0.0000000000000000,0.3124203083490019
2.6004367014926251,0.0607535495311153,1.0608262295177155,0.8391737704822848,-0.0323002305716742,-0.0040278974728504,2.5993369652286717,8.0000000000000000,0.0000000000000000,0.3249171206535840
2.7003608964497610,0.0575824860597366,1.0576595947013481,0.8423404052986520,-0.0310731723921445,-0.0129898267161581,2.6993114638839351,8.0000000000000000,0.0000000000000000,0.3374139329854919
2.8002891346295153,0.0545415009632013,1.0546205033308707,0.8453794966691294,-0.0297029277448855,-0.0144356907608938,2.7992859625126707,8.0000000000000000,0.0000000000000000,0.3499107453140838
2.9002216446870039,0.0516442902411153,1.0517286787447655,0.8482713212552347,-0.0281867704983199,-0.0042341538864586,2.8992604612428883,8.0000000000000000,0.0000000000000000,0.3624075576553610
3.0001586452724918,0.0489063324888059,1.0489829153062928,0.8510170846937074,-0.0288563129180281,0.0060263439751053,2.9992349604848312,8.0000000000000000,0.0000000000000000,0.3749043700606039
3.1000871854833036,0.0458753063132237,1.0459495005765300,0.8540504994234700,-0.0293917319337194,-0.0069111341070622,3.0992094585747987,8.0000000000000000,0.0000000000000000,0.3874011823218498
3.2000211962095140,0.0430303338299824,1.0431096205723813,0.8568903794276190,-0.0274744385874026,-0.0198112506967724,3.1991839571644727,8.0000000000000000,0.0000000000000000,0.3998979946455591
3.2999606249756939,0.0403825136364636,1.0404643887162393,0.8595356112837610,-0.0254304922234732,-0.0210874778840039,3.2991584557823082,8.0000000000000000,0.0000000000000000,0.4123948069727885
3.3999054308432068,0.0379460832965022,1.0380337787145208,0.8619662212854793,-0.0232580185261737,-0.0066423123691641,3.3991329545942368,8.0000000000000000,0.0000000000000000,0.4248916193242796
3.4998554221090181,0.0357325182621371,1.0358093797597943,0.8641906202402058,-0.0241023685163282,0.0076473809811347,3.4991074544639393,8.0000000000000000,0.0000000000000000,0.4373884318079924
3.5997959697566140,0.0331273147155009,1.0332054595516376,0.8667945404483626,-0.0247871046858268,-0.0094423098162834,3.5990819519601547,8.0000000000000000,0.0000000000000000,0.4498852439950193
3.6997428344685197,0.0307768730879751,1.0308599307067003,0.8691400692932999,-0.0222143881490899,-0.0262843080643991,3.6990564504164332,8.0000000000000000,0.0000000000000000,0.4623820563020541
3.7996954651094770,0.0286859391356354,1.0287728371514664,0.8712271628485337,-0.0195315836491750,-0.0273868195089075,3.7990309490490377,8.0000000000000000,0.0000000000000000,0.4748788686311297
3.8996535030405153,0.0268718045576625,1.0269639232272592,0.8730360767727409,-0.0167384210425428,-0.0087164471210220,3.8990054479539578,8.0000000000000000,0.0000000000000000,0.4873756809942447
3.9996162568648108,0.0253392681913519,1.0254182066036441,0.8745817933963560,-0.0177887387659255,0.0094113403787316,3.9989799488021780,8.0000000000000000,0.0000000000000000,0.4998724936002722
4.0995702611386449,0.0233151624113127,1.0234032980431009,0.8765967019568990,-0.0186202091161098,-0.0119856491564686,4.0989544454229785,8.0000000000000000,0.0000000000000000,0.5123693056778723
4.1995303255932290,0.0216163961613960,1.0217081386414673,0.8782918613585329,-0.0153922202646832,-0.0327261570377011,4.1989289436339545,8.0000000000000000,0.0000000000000000,0.5248661179542443
4.2994953164247676,0.0202376288765429,1.0203351676796759,0.8796648323203242,-0.0120766468435298,-0.0335806841525985,4.2989034423382506,8.0000000000000000,0.0000000000000000,0.5373629302922813
4.3994644486214618,0.0192017449758833,1.0193025720942992,0.8806974279057008,-0.0086777961265976,-0.0106440178064872,4.3988779413248214,8.0000000000000000,0.0000000000000000,0.5498597426656027
4.4994365057483670,0.0185025364448470,1.0185890310310808,0.8814109689689192,-0.0099483861140519,0.0111345688532852,4.4988524435679187,8.0000000000000000,0.0000000000000000,0.5623565554459898
4.5994026792743687,0.0172126166363548,1.0173211969838025,0.8826788030161976,-0.0109041420086715,-0.0147081215403553,4.5988269390282266,8.0000000000000000,0.0000000000000000,0.5748533673785283
4.6993732127602952,0.0163223117883598,1.0164317550414430,0.8835682449585573,-0.0070075120194679,-0.0392511680447130,4.6988014368173285,8.0000000000000000,-1.7934624584251253,0.5873501796021661
4.7993464065848261,0.0158114856296501,1.0159294730631596,0.8840705269368404,-0.0030559103399359,-0.0397276321924958,4.7987759357000019,7.9775559527281361,-5.9576574111945968,0.5998645465276786
4.8993208553859331,0.0157112878177794,1.0158289926651078,0.8841710073348921,0.0009359882261470,-0.0124469617103200,4.8987504347119337,7.9025420814425482,-7.7220241354599963,0.6124557155238406
4.9992949465561107,0.0159986351635508,1.0161026160587361,0.8838973839412639,-0.0005671527539510,0.0127733526616075,4.9987249388307342,7.8042398913345989,-7.4511240098066045,0.6251858220844430
5.0992686373882954,0.0155978868704115,1.0157423443112132,0.8842576556887868,-0.0016180308416225,-0.0176529961514772,5.0986994328669821,7.7081979460659138,-5.8275409752760101,0.6380754136604632
5.1992431046736165,0.0156751125946611,1.0158160174735549,0.8841839825264455,0.0029625460172806,-0.0458782548795750,5.1986739299789768,7.6322411268859458,-5.8270181237060328,0.6511095252183610
5.2992162767658009,0.0161902426860872,1.0163433364200603,0.8836566635799399,0.0075552801756762,-0.0458253323197257,5.2986484292134550,7.5555276573535073,-5.8671202821049109,0.6642746583797536
5.3991858189724908,0.0171857645641925,1.0173331680745272,0.8826668319254729,0.0121252753043666,-0.0141114165482879,5.3986229281260520,7.4774911140373161,-7.7109583377727571,0.6775753134820885
5.4991501143232986,0.0186146143225273,1.0187513167070668,0.8812486832929333,0.0103768438799419,0.0143047697651254,5.4985974346595450,7.3736744470493623,-7.3970000632899691,0.6910388367486324
5.5991225199987342,0.0192605509673785,1.0194614694803514,0.8805385305196490,0.0092650509098524,-0.0208537935450901,5.5985719270597718,7.2726922248810304,-5.7772208774880500,0.7046906173764965
5.6990897349395340,0.0204671180937660,1.0206578441718790,0.8793421558281211,0.0145465388053416,-0.0526274086794841,5.6985464231437755,7.1928369024925960,-5.7761709957605758,0.7185130631651983
5.7990497479402601,0.0221690052944834,1.0223761489784291,0.8776238510215709,0.0197878484336320,-0.0518773241326338,5.7985209229882324,7.1120997668216690,-5.8565594526023199,0.7324906853183831
5.8989988252340604,0.0244234052597097,1.0246171571388840,0.8753828428611161,0.0249193578078384,-0.0156795978848077,5.8984954215920524,7.0292922761534165,-7.7251697398919337,0.7466299579303016
5.9989361173547326,0.0271510765437510,1.0273399856082295,0.8726600143917705,0.0229229684779528,0.0156114081674725,5.9984699310784526,6.9185482431432330,-7.3688627360123640,0.7609654400930188
6.0988933913117469,0.0290063848528910,1.0292892516679135,0.8707107483320866,0.0217978723536318,-0.0243816821598422,6.0984444217540226,6.8112343371020696,-5.8078203128855197,0.7755285972429966
6.1988365533089826,0.0315091709974985,1.0317738222531347,0.8682261777468654,0.0277980610848767,-0.0595198265210671,6.1984189163438499,6.7254475980428063,-5.8061124593397908,0.7902994982760283
6.2987643762574139,0.0345638422506810,1.0348506715845414,0.8651493284154587,0.0336988018739239,-0.0578702074178967,6.2983934171712015,6.6385780860271453,-5.9281924858500128,0.8052612325903408
6.3986710459525851,0.0382459042646193,1.0385101754275243,0.8614898245724756,0.0393691511141996,-0.0167920946739764,6.3983679150706880,6.5486932184849751,-7.7575863976677271,0.8204235046921182
6.4985578141040703,0.0424336065785044,1.0427024689298434,0.8572975310701568,0.0370563645993529,0.0179612162885347,6.4983424283349107,6.4291726545028425,-7.4880103248468455,0.8358304312611946
6.5984804372747430,0.0456535048721720,1.0460462986433694,0.8539537013566308,0.0357778238454440,-0.0254032340089224,6.5983169169123963,6.3116591333838787,-6.1217813783085084,0.8515239888313583
6.6983775666147087,0.0495857744623463,1.0499452148694193,0.8500547851305810,0.0421357153610826,-0.0615911429823955,6.6982914096317678,6.2139357126025656,-6.1183794137407386,0.8674872215478318
6.7982511833053687,0.0540759732231911,1.0544589844262231,0.8455410155737771,0.0480929110132522,-0.0563091096931554,6.7982659123601374,6.1147063021516503,-6.3735751771278801,0.8837054721238037
6.8980943743383092,0.0591981491775228,1.0595425058695400,0.8404574941304601,0.0533946653597934,-0.0071158429765615,6.8982404065181342,6.0095959309216838,-7.2239640631314375,0.9001970593897960
6.9979147849560981,0.0647470874268501,1.0651027184498749,0.8348972815501252,0.0495157168170619,0.0368043210557214,6.9982149287305404,5.8881931474407452,-7.2147752106203020,0.9170026224324661
7.0977946947918973,0.0690945430290109,1.0696104094493215,0.8303895905506787,0.0460356780677635,0.0011004895901450,7.0981894092694269,5.7643934402324541,-7.7975689992728299,0.9341618136191929
7.1976512810305922,0.0739485935776179,1.0744187252540358,0.8255812747459647,0.0492956750510782,-0.0221803162298405,7.1981639041267371,5.6275319359520566,-7.7946421934340195,0.9517136306397490
7.2975007485340777,0.0789471698898103,1.0794458525559540,0.8205541474440462,0.0504706101450427,0.0015082425381812,7.2981384105065059,5.4873112431107218,-6.3987823356282201,0.9697029994089085
7.3973456291970470,0.0840358556623075,1.0844797416117007,0.8155202583882994,0.0489941034974322,0.0728801073165467,7.3981128818354094,5.3694650493753118,-4.9129861830326114,0.9881199711941880
7.4972094806749485,0.0887395567233230,1.0891870717733996,0.8108129282266003,0.0358983029236590,0.1288031382876849,7.4980874467790581,5.2771969457295542,-4.8816471311363019,1.0069004236946271
7.5971533480734905,0.0912116964195318,1.0917222547640473,0.8082777452359530,0.0232400445162391,0.0893654476955619,7.5980618840380645,5.1838911788686834,-6.0851268384961816,1.0260140065395944
7.6971042250531978,0.0933859560175976,1.0937080730828943,0.8062919269171060,0.0180297745896123,0.0649392133229575,7.6980364068616938,5.0651764480966230,-6.3827498334459127,1.0455230051065656
7.7970684768889562,0.0948165117466967,1.0950230946852995,0.8049769053147009,0.0102555130863511,0.0868444857792841,7.7980108942811199,4.9375893069900370,-5.7497538323730941,1.0655123740205754
7.8970410508137130,0.0954364826395530,1.0954849890968283,0.8045150109031717,0.0006653079204866,0.1183913343270622,7.8979853905341590,4.8197645874628972,-5.2562293588914200,1.0860045068948119
7.9970143794574913,0.0949495373589716,1.0948265919481659,0.8051734080518346,-0.0134167170978150,0.1462531360781990,7.9979599050657297,4.7094747819388392,-5.2509416752257616,1.1069871920087124
8.0969647443267228,0.0927540020443519,1.0922514610641951,0.8077485389358050,-0.0285778589721446,0.1452130619406369,8.0979343808723581,4.5966544832926175,-5.4314772601316088,1.1284729188790972
8.1968773661803596,0.0892363257106969,1.0883152030714707,0.8116847969285296,-0.0424519240299444,0.1526104306241976,8.1979089078902749,4.4769647863919664,-4.8162467123366968,1.1505092252407574
8.2967283074642868,0.0842685564321110,1.0828674020408018,0.8171325979591985,-0.0590921573541292,0.1930667002187882,8.2978833506588732,4.3680900329537353,-4.7194609419551030,1.1731149512222256
8.3964686193379325,0.0774283006911736,1.0756709278409236,0.8243290721590767,-0.0810554242549595,0.0702098424524817,8.3978579419871373,4.2587038143156217,-7.2216728108286663,1.1962926446036224
8.4960054676270662,0.0680805945951181,1.0661728969582205,0.8337758392399920,-0.0731305737208736,-0.0554046983888925,8.4978327576988573,4.0856562950498621,-6.5134103213093919,1.2202548932125985
8.5958412989839168,0.0628220144228060,1.0603387586339814,0.8389471830909208,-0.0699773078991668,0.1290811282551805,8.5978069838181028,3.9230397714961458,-4.7945123251758153,1.2452213110385564
8.6954347558249623,0.0541022459361164,1.0515600902111910,0.8470719537867051,-0.0989401746567875,0.2567623752316297,8.6977814355945977,3.7988924130923127,-3.6618543264964205,1.2711149473426993
8.7947986584957292,0.0430726532210954,1.0402129533270450,0.8577602331029329,-0.1213165940356060,0.3531647403048174,8.7977556176088800,3.7012702933393631,-3.1103592727716198,1.2977741508633243
8.8939041400129941,0.0299057940889205,1.0268027444723615,0.8705285983582071,-0.1695556383928909,0.4121315300531704,8.8977319280337781,3.6162794825595692,-3.0072712722702053,1.3250992291987473
8.9917426414854393,0.0093559611380422,1.0057568077606420,0.8890319898191240,-0.2037221479434530,0.3399859021508063,8.9977052645024713,3.5321641256417706,-3.5250138118546750,1.3530698874141931
9.0897156830556636,-0.0105465357534663,0.9876298536068872,0.8952926087180618,-0.2375349574620924,0.4226346743656900,9.0976793924408401,3.4309420057542415,-3.5201285308774519,1.3817852699035091
9.1859433009758504,-0.0376611075644948,0.9656076305034370,0.9066947437212167,-0.2882274849298525,0.4447304875422000,9.1976541615332916,3.3267874853600876,-2.6186722880973581,1.4113735418886209
9.2813993958604701,-0.0673775836940737,0.9393622646829893,0.9220380848509059,-0.3264585697999070,0.5577936405993750,9.2976288333466126,3.2471392282392433,0.0000000000000000,1.4417890533991178
9.3752775722464659,-0.1017645272786896,0.9083141228467453,0.9424268152576584,-0.3997597395038044,0.8061523141278683,9.3976067003505239,3.2471392282392433,0.0000000000000000,1.4725785761071182
9.4653642796356969,-0.1451045939957005,0.8772921163207020,0.9843568264978801,-0.4876469060263631,0.7987643600753243,9.4975765769697738,3.2471392282392433,0.0778979460160423,1.5033656380691818
9.5517796247880824,-0.1953758103766092,0.8667047697251420,1.0284211976880107,-0.5594678077225588,0.6070199024117229,9.5975506089691986,3.2495366917555404,2.0901801930913262,1.5341426179372180
9.6347382806578583,-0.2511680167615758,0.8512723051903019,1.0750437207818733,-0.6090196693834584,0.4744700417717643,9.6975251501135453,3.3132187254227810,3.2915438699810293,1.5646098637171411
9.7157564482255250,-0.3097431923988903,0.8309368021284131,1.1277427976108889,-0.6543378607472086,0.3772485533961845,9.7975001203659282,3.4110940068347113,4.1105009455221682,1.5943452357121966
9.7933244654374079,-0.3728150142276903,0.8068734590217098,1.1830173474171326,-0.6844502260044383,0.2066719591508917,9.8974743770672760,3.5295114218346444,-0.3525405406429770,1.6231537475138864
9.8706699534583322,-0.4361601080585676,0.8137889843564787,1.1689927819353829,-0.6956616876369992,0.2232593020097790,9.9974490009957382,3.5195114236098988,-4.4982205338450827,1.6515192745154257
9.9468048336321733,-0.5009556520953007,0.8376632712424268,1.1150352817795015,-0.7290908192486945,0.3483581925943458,10.0974239103785504,3.3893277033079063,-3.0914006907570046,1.6804604345413683
10.0197455165697438,-0.5693265561820583,0.8578096220776482,1.0643731083097896,-0.7653157427503734,0.4975978260476662,10.1973985259218960,3.2968802054840753,-0.9458844666927115,1.7103651628738166
