# x_m,y_m,w_tr_right_m,w_tr_left_m,psi,kappa,s,velocity,acceleration,time
-0.1396766332731616,0.5687125627409811,1.4478883435655203,2.6313272673087065,-3.1410572542163560,0.0726481885931339,0.0000000000000000,6.7124060583498331,-3.6562167437484732,0.0000000000000000
-0.2395708740127685,0.5686590794219688,1.3876207111311543,2.6527401745185033,-3.1338001175355990,0.1092765296304042,0.0877572340774396,6.6577717741211009,-2.0657794337326614,0.0149428461324534
-0.3394538023307010,0.5671557604366116,1.3890296139846261,2.6748726084026750,-3.1192250607332124,0.1465213120050471,0.1793779107387490,6.6267040118037803,-2.0655942215746550,0.0299820907923656
-0.4393040166130697,0.5641907846071142,1.4013891941624279,2.6956271417686128,-3.1045268492726517,0.1477701451053882,0.2709252983952081,6.5954927176339231,-2.0717397493843768,0.0450921709058083
-0.5390995751517993,0.5597523385219803,1.4056863861311977,2.7150665945383343,-3.0897022944797090,0.1490512360319170,0.3624210150159714,6.5640395013110515,-2.0777089755317548,0.0602742015311404
-0.6388179778168981,0.5538286314326137,1.3985901922849258,2.7331012772588186,-3.0747481405198491,0.1503653782658370,0.4538882970406471,6.5323435645170767,-2.0835075515300989,0.0755294356217872
-0.7384361469300540,0.5464079013660655,1.3857458884388483,2.7497268282831118,-3.0596610402042534,0.1517134286707987,0.5489496416669887,6.5004039793946697,-2.0891399153846115,0.0908591545368691
-0.8379304077970324,0.5374784272577949,1.3714027920388785,2.7650052946886565,-3.0444375665217498,0.1530962511270793,0.6404574197900660,6.4682197037621343,-2.0946119712618745,0.1062646692156743
-0.9372764685198519,0.5270285395563704,1.3577200932939477,2.7790987783833860,-3.0290741997050117,0.1545148304275864,0.7320027934587181,6.4357895551261368,-2.0999262407743977,0.1217473214113745
-1.0364493992167920,0.5150466320951386,1.3457622430533935,2.7922780411545296,-3.0135673160091923,0.1559702346482439,0.8236140977710695,6.4031122594733079,-2.1050835404575117,0.1373084849505178
-1.1354236103433410,0.5015211729302462,1.3361031343464385,2.8048444605370033,-2.9979131822953695,0.1574635628030803,0.9153208584634267,6.3701864751863511,-2.1100853123004173,0.1529495669570784
-1.2341728304563677,0.4864407177562030,1.3289966804146762,2.8169932705587315,-2.9821079552673533,0.1589959565699598,1.0071536257921545,6.3370107809174749,-2.1149332501758313,0.1686720091140298
-1.3326700831219975,0.4697939233785851,1.3243644082346238,2.8287219420297438,-2.9661476737123662,0.1605686209422743,1.1027193420861037,6.3035836689527427,-2.1196285050524915,0.1844772890026283
-1.4308876630827065,0.4515695625501323,1.3217965574112993,2.8398572618186035,-2.9500282536119835,0.1621827880693277,1.1948394227030088,6.2699035509746528,-2.1241732408408946,0.2003669215008739
-1.5287971115680821,0.4317565396258667,1.3206325418030092,2.8501707826852765,-2.9337454876072675,0.1638396944594580,1.2871651069241905,6.2359687390335310,-2.1285717482176176,0.2163424602604565
-1.6263691910256333,0.4103439086313698,1.3201041913436558,2.8594875665401589,-2.9172950446645958,0.1655406633286069,1.3797284021607854,6.2017774078958583,-2.1328273464643606,0.2324054993223548
-1.7235738590388523,0.3873208923887244,1.3194964805125848,2.8677149317329786,-2.9006724530884114,0.1672871760323480,1.4725611102191203,6.1673276062447577,-2.1369396289167510,0.2485576748410196
-1.8203802409364318,0.3626769010294799,1.3182660019470980,2.8748046758804948,-2.8838730859157087,0.1690807919544179,1.5656944625198073,6.1326173130383737,-2.1409077424727507,0.2648006667986255
-1.9167566014914932,0.3364015523128798,1.3160958967643057,2.8807073331808430,-2.8668921599350368,0.1709231090216641,1.6591587153433418,6.0976444419955822,-2.1447322114601124,0.2811362007167749
-2.0126703158433688,0.3084846942636275,1.3129019307692766,2.8853658802231705,-2.8497247289700125,0.1728158838487502,1.7558885981066661,6.0624068161328113,-2.1484105286821089,0.2975660494757398
-2.1080878392529367,0.2789164287805831,1.3088236963938145,2.8887449654371977,-2.8323656588936830,0.1747610567953776,1.8499298596816018,6.0269022144253617,-2.1519361843819738,0.3140920351909695
-2.2029746749379107,0.2476871343999507,1.3042045888201068,2.8908537809032135,-2.8148096159058209,0.1767605493218187,1.9443661700390906,5.9911284362645745,-2.1553065051570663,0.3307160310233837
-2.2972953412570303,0.2147874929751128,1.2995247900848184,2.8917282857880227,-2.7970510820366123,0.1788163112679973,2.0392195386809915,5.9550832367283890,-2.1585212633850159,0.3474399630719991
-2.3910133387090111,0.1802085210312727,1.2952660282565625,2.8913805326371027,-2.7790843339762916,0.1809305257807172,2.1345085148368907,5.9187642829347098,-2.1615749391407606,0.3642658125133539
-2.4840911140883875,0.1439415984354713,1.2917522231796736,2.8897586874924213,-2.7609034176320817,0.1831052704931495,2.2302463833577231,5.8821692401370873,-2.1644688068668052,0.3811956177840281
-2.5764900239506643,0.1059785014354015,1.2890550315486029,2.8867566191136738,-2.7425021946567907,0.1853422319794541,2.3263996749074414,5.8452956544659251,-2.1672218807423889,0.3982314769076062
-2.6681703005017452,0.0663114468467306,1.2870262707979578,2.8822735568634466,-2.7238743740610598,0.1876433413789129,2.4228678338080942,5.8081406429087448,-2.1698489630172286,0.4153755505658385
-2.7590910167121652,0.0249331379081439,1.2854580906688589,2.8762687873551807,-2.7050134317383039,0.1900111477732333,2.5195406407275991,5.7707009510919853,-2.1723468317247852,0.4326300657209849
-2.8492100452317874,-0.0181631988977659,1.2842939014369770,2.8687616368412341,-2.6859125674731521,0.1924478059307068,2.6163058048829990,5.7329732536945492,-2.1747304696433902,0.4499973188899834
-2.9384840184701004,-0.0629837674889874,1.2837688661448137,2.8597890154808145,-2.6665648267472530,0.1949558517717435,2.7130505887836907,5.6949538311904266,-2.1770104207651633,0.4674796795939087
-3.0268682971672485,-0.1095341347816219,1.2843798275038498,2.8493609937069766,-2.6469629028105008,0.1975410205612687,2.8111091004652615,5.6566386331541709,-2.1790969928272466,0.4850795944453906
-3.1143169122578955,-0.1578192105731064,1.2866763296971724,2.8374522331508660,-2.6270986953555098,0.2002101201331075,2.9075329349585148,5.6180250471218125,-2.1808666303810336,0.5027995886262185
-3.2007824877548212,-0.2078432461201177,1.2909860105621975,2.8240296446615516,-2.6069635375496953,0.2029660661784622,3.0036499781268708,5.5791125529855998,-2.1823249110692622,0.5206422634574686
-3.2862161966380774,-0.2596097593855662,1.2972291467281545,2.8090802203251752,-2.5865487467027104,0.2058090245499668,3.0993594251608121,5.5399004672469756,-2.1835723968662379,0.5386102963290778
-3.3705677365913922,-0.3131214253736194,1.3049225107667879,2.7926001700190000,-2.5658456229998450,0.2087409718333298,3.1945676578880637,5.5003862117667461,-2.1846596153368694,0.5567064471766240
-3.4537852904555248,-0.3683799916759340,1.3133793989775533,2.7745544320734634,-2.5448450889451699,0.2117662986617695,3.2891897858552452,5.4605661595635206,-2.1855677637776423,0.5749335668266045
-3.5358154667611030,-0.4253862181451615,1.3220161464400511,2.7548521409419955,-2.5235375676231042,0.2148897727519056,3.3831511343218628,5.4204368722867375,-2.1862729939330290,0.5932946023167243
-3.6166032462667901,-0.4841397977227714,1.3305962592253235,2.7333643390644138,-2.5019130291505007,0.2181161120116925,3.4763886875262751,5.3799951989471868,-2.1867607547832422,0.6117926002574103
-3.6960919265677448,-0.5446392716127711,1.3392594109227078,2.7099676739095568,-2.4799609541952132,0.2214507017799659,3.5714301748662702,5.3392381109246028,-2.1869252938384900,0.6304307105003500
-3.7742230643567143,-0.6068819383862475,1.3483471028505494,2.6845820431872442,-2.4576702371259733,0.2249003152949273,3.6633290725324801,5.2981644243967940,-2.1864823082386002,0.6492121872355321
-3.8509364083379469,-0.6708637652029397,1.3582129867600909,2.6571885935441770,-2.4350290055422961,0.2284715273025882,3.7544053684594845,5.2567782639755123,-2.1857260431945598,0.6681403808300286
-3.9261698177088751,-0.7365793026803258,1.3691787744677062,2.6278354759847695,-2.4120248403982112,0.2321676854689028,3.8446504444107332,5.2150781924195551,-2.1847393809718212,0.6872187423135246
-3.9998592224755960,-0.8040215379581169,1.3815877052450107,2.5966323664973174,-2.3886452007599113,0.2359913404213920,3.9340735970866341,5.1730610689335652,-2.1834992933458257,0.7064508410489352
-4.0719386030467248,-0.8731817239516498,1.3957761890567397,2.5637139119513108,-2.3648771583200632,0.2399491612888799,4.0262980398816728,5.1307240398815575,-2.1819101486104544,0.7258403728802617
-4.1423399248826929,-0.9440492518999011,1.4118828878667067,2.5291655703792206,-2.3407068399286821,0.2440508530255360,4.1143922059697546,5.0880659741340510,-2.1799439513669596,0.7453911622538173
-4.2109930468323986,-1.0166115349214149,1.4296612792924561,2.4929348683650741,-2.3161193785233949,0.2483040187844200,4.2017869676916444,5.0450861954817015,-2.1776900434550561,0.7651071639544108
-4.2778256498132397,-1.0908538532551200,1.4485380037880808,2.4547810526015219,-2.2910993822479391,0.2527122168792015,4.2885671905381431,5.0017821583713671,-2.1752245138076973,0.7849924718936571
-4.3427632183217968,-1.1667591391334586,1.4678976999405495,2.4143262074117571,-2.2656312736269122,0.2572798982286002,4.3788833760900960,4.9581496323718923,-2.1724723417671412,0.8050513328169816
-4.4057290339696698,-1.2443077483586999,1.4873763065876922,2.3712020390372186,-2.2396987720623338,0.2620178780247537,4.4648652917439682,4.9141856965867632,-2.1692989150414297,0.8252881546811291
-4.4666440963867657,-1.3234772840741424,1.5069593991156121,2.3252366665840638,-2.2132841396249958,0.2669399050123519,4.5506500343539678,4.8698900184448277,-2.1657020624142622,0.8457075066822753
-4.5254270111001036,-1.4042424223377952,1.5268792568748348,2.2765539341857886,-2.1863683491905048,0.2720549589620785,4.6369231651761629,4.8252622298143892,-2.1617519665764369,0.8663141216940784
-4.5819939443580218,-1.4865746625401006,1.5475028713820986,2.2255336621551494,-2.1589318694789030,0.2773695933093935,4.7260212414447649,4.7803004135636673,-2.1574084805053011,0.8871129075612322
-4.6362586554015648,-1.5704420132814765,1.5693628518640679,2.1726620532603196,-2.1309543648909637,0.2828955787629151,4.8121765499255016,4.7350033564952678,-2.1525814132513186,0.9081089579048329
-4.6881324294069362,-1.6558087352715340,1.5932475122207719,2.1183380175036408,-2.1024139530386741,0.2886475213624065,4.8988492994037083,4.6893716479348333,-2.1472253379851582,0.9293075561457752
-4.7375240116029183,-1.7426350558950392,1.6201229901054954,2.0627273299497237,-2.0732873808915073,0.2946388316521824,4.9886873320344343,4.6434068055215292,-2.1413086740561593,0.9507141787298935
-4.7843395952733667,-1.8308768285453538,1.6508091356333485,2.0057185119825518,-2.0435500877697539,0.3008830749739537,5.0764442135116692,4.5971110214363806,-2.1348356488640707,0.9723345012205566
-4.8284828003063316,-1.9204851758783528,1.6855199031100374,1.9469720606730061,-2.0131761113913376,0.3073930032566914,5.1651387540483125,4.5504864118970607,-2.1278619605788540,0.9941744070531806
-4.8698546854348956,-2.0114060903209650,1.7235072748871827,1.8860045593407817,-1.9821383445252243,0.3141798355500148,5.2549105621532286,4.5035338734355204,-2.1203898188410757,1.0162400012183057
-4.9083538217055063,-2.1035799847875376,1.7630721248357704,1.8222563148708428,-1.9504085849812256,0.3212582029942572,5.3458872757581792,4.4562542189198497,-2.1122735643405508,1.0385376250304743
-4.9438763742245939,-2.1969412227997336,1.8020257091527909,1.7551613718786441,-1.9179568040586794,0.3286508536280915,5.4378457178525732,4.4086515238947248,-2.1032921520294146,1.0610738607855179
-4.9763161082736946,-2.2914176518587692,1.8383814745074714,1.6842874353993251,-1.8847502563442511,0.3363853846506427,5.5308711806373729,4.3607350330579653,-2.0932805406954635,1.0838555227579292
-5.0055643747943099,-2.3869300984634583,1.8708804040324387,1.6095671017563249,-1.8507534013144475,0.3444877908178109,5.6253782387763707,4.3125181553273952,-2.0821316753333048,1.1068896439820965
-5.0315101788930070,-2.4833917852392942,1.8990950418054351,1.5315465107924338,-1.8159283025138979,0.3529822574845074,5.7214575709025617,4.2640173493509694,-2.0696965583662439,1.1301834666307826
-5.0540403364753637,-2.5807076790386381,1.9231842206399679,1.4515267362794955,-1.7802345904496448,0.3618962747879638,5.8191926071175661,4.2152533032375885,-2.0557346208266254,1.1537444306359959
-5.0730396518021479,-2.6787737915490331,1.9435485632842107,1.3715014763217790,-1.7436288397391229,0.3712633308197399,5.9186611191264227,4.1662533895210094,-2.0399601833541734,1.1775801501010288
-5.0883910881799821,-2.7774764277906367,1.9605578233302496,1.2938800727651283,-1.7060639939514815,0.3811204414878626,6.0199368948684766,4.1170531717840628,-2.0220935438725212,1.2016983746322791
-5.0999759879178361,-2.8766913585766125,1.9743655645091296,1.2210637659119490,-1.6674892366535561,0.3915051966877058,6.1230914558883383,4.0676967701435078,-2.0018089891203483,1.2261069396020443
-5.1076743990697127,-2.9762829056062823,1.9847706515208137,1.1549655373614045,-1.6278500068781314,0.4024584420760592,6.2281957610112286,4.0182385483436525,-1.9786348576031276,1.2508137033685456
-5.1113655134722666,-3.0761029435126090,1.9911464571553719,1.0965620333793498,-1.5870873343390119,0.4140297921789483,6.3353218048609161,3.9687474408191865,-1.9519831318308234,1.2758264576593592
-5.1109281137473701,-3.1759898188708857,1.9925421185118353,1.0456034588309278,-1.5451367529980540,0.4262754980718625,6.4535935921815968,3.9193108474208600,-1.9211869528032044,1.3011528001836199
-5.1062410901548310,-3.2757671563743309,1.9880536641137048,1.0006510247566134,-1.5019280631867522,0.4392554119771664,6.5660718634013637,3.8700378450293553,-1.8853638738203058,1.3267999670663693
-5.0971841889949712,-3.3752425480445338,1.9774354667041800,0.9595271345319371,-1.4573848527529352,0.4530403004177499,6.6808275000175961,3.8210661913851194,-1.8433062387364789,1.3527746101176361
-5.0836388469444556,-3.4742061206015808,1.9617206039480646,0.9200362780515293,-1.4114227973824520,0.4677171972780215,6.8102767645282718,3.7725727170753687,-1.7934139564762976,1.3790824873930863
-5.0654890916318962,-3.5724289376014444,1.9434615336862346,0.8806212265679610,-1.3639481127787989,0.4833912627045714,6.9305155013121773,3.7247862228543105,-1.7335381863140040,1.4057280334749005
-5.0426226582027835,-3.6696612185336206,1.9263908854083922,0.8406265089486771,-1.3148554848423681,0.5001921884974434,7.0673374358156238,3.6780054216271663,-1.6608464891896477,1.4327137679666302
-5.0149321973514418,-3.7656303075783337,1.9146881044268298,0.8001534041953386,-1.2640252414425532,0.5182771128948186,7.2079623463166644,3.6326215965400563,-1.5716627434305688,1.4600394873407629
-4.9823167202676064,-3.8600383351630594,1.9121242353733712,0.7597568041348554,-1.2113207026628623,0.5378319383528843,7.3356505483360399,3.5891467497282585,-1.4616096284340421,1.4877011768435009
-4.9446833857534243,-3.9525595456338003,1.9213790275435783,0.7201975608825747,-1.1565850836577636,0.5590462314453166,7.4820042820497248,3.5482385757884121,-1.3248310911242265,1.5156896172204812
-4.9019497337821818,-4.0428371568252102,1.9436002509058961,0.6823327488014840,-1.0996438768360894,0.5821474581732220,7.6312112150057869,3.5107472295388860,-1.1512622758785440,1.5439885803869564
-4.8540475703630124,-4.1304803711291358,1.9781290659267579,0.6471150655193435,-1.0402949181707299,0.6075661431497935,7.7830510152498222,3.4778399469548384,-0.9317292288002930,1.5725722344104807
-4.8009253977196691,-4.2150600152485884,2.0223806241425715,0.6156341359559461,-0.9782776718627266,0.6354950792167665,7.9374306435147437,3.4509783499844868,-0.6577805520478205,1.6014020662329072
-4.7425500861094081,-4.2961011303028895,2.0719808716137171,0.5891173099035631,-0.9133516280603153,0.6658442985025201,8.1145841149946172,3.4318883686451791,-0.3298378843207888,1.6304238749195219
-4.6789253546971272,-4.3730873620035053,2.1212048345248085,0.5688100198352244,-0.8452742918842286,0.6975906012696446,8.2753737470413213,3.4222759611453268,-0.0494485144636430,1.6595666991880149
-4.6100932677678426,-4.4454516762793750,2.1636544831384272,0.5556641350507604,-0.7740099825746514,0.7221400086721140,8.4396554086704239,3.4208326023690856,0.0000000000000000,1.6887558222971120
-4.5361844963736990,-4.5126135729308663,2.1929656144010590,0.5500000000000000,-0.7010353365191246,0.7263656205419097,8.6322981807876893,3.4208326023690856,0.0000000000000000,1.7179493129299450
-4.4575666410668164,-4.5741932674959758,2.2034195335230811,0.5514611293206358,-0.6289329177064773,0.7109239113769228,8.8615652099317685,3.4208326023690856,0.1807003583188090,1.7471422168097077
-4.3747661759716099,-4.6300424385315742,2.1910516349651039,0.5589384313419609,-0.5590359674318162,0.6879668735489569,9.1047586364585555,3.4261042959367152,0.4245136797122206,1.7763158920402169
-4.2883187378185834,-4.6800760056822526,2.1547641063983116,0.5707841747950202,-0.4915062547670339,0.6620136095531381,9.4086286230564564,3.4384580319031182,0.6730173065405471,1.8054168057605418
-4.1987433680065482,-4.7242717588627121,2.0966012007188044,0.5855182550346194,-0.4267871575546227,0.6317360873850257,9.6088407918985652,3.4579534833052716,0.9460521908755237,1.8343840421342454
-4.1065575975599478,-4.7627297251607494,2.0215066376599209,0.6021410264830602,-0.3653036520446979,0.5977706251078955,9.7880870848437844,3.4851739132662063,1.2392166387081660,1.8631566936047139
-4.0122373423047328,-4.7956047351761901,1.9364163999273576,0.6199345480962762,-0.3073696764637808,0.5593012577417353,9.9297043485958092,3.5205108014032662,1.5680222793991716,1.8916721985077931
-3.9162239930470277,-4.8231472678897678,1.8485390948982781,0.6382866708879512,-0.2535714666025362,0.5150632156223713,10.0595957598266725,3.5647219146616713,1.9549669043999365,1.9198676609315450
-3.8189177613576848,-4.8457034532243135,1.7636385656325997,0.6566322394745652,-0.2044744353330386,0.4653754130079816,10.1704918535863076,3.6190870908745398,2.4046099310727120,1.9476764059750096
-3.7206648604600332,-4.8637008720219557,1.6851814275112205,0.6745733783596226,-0.1606015628002742,0.4107593299111809,10.2778193695965765,3.6848572522383858,2.9226387696819009,1.9750281026115220
-3.6217534099748172,-4.8776434374105433,1.6145419822164075,0.6920823989041941,-0.1224141996892245,0.3522535802585451,10.3820821275358135,3.7632504022454500,3.5113659191089157,2.0018508324063493
-3.5224106098172889,-4.8880919647682113,1.5517159204960209,0.7096003629254324,-0.0902283255517622,0.2915424334043623,10.4836979161405441,3.8553287280380513,4.1666416648050504,2.0280737689825430
-3.4228044196033434,-4.8956431443224826,1.4959370294661183,0.7279249582800816,-0.0641690454811639,0.2309536928319092,10.5830146568797474,3.9618162518904261,4.8749536055806688,2.0536309280614859
-3.3230500061841859,-4.9009023321783118,1.4458940891100269,0.7479123469479663,-0.0440872508356540,0.1734832231601239,10.6803297744555632,4.0828831769070746,5.6080459400378757,2.0784654054353946
-3.2232191363454534,-4.9044480161423580,1.3997036842243638,0.7701476536710644,-0.0295093928790111,0.1220205646491628,10.7759132650884251,4.2178612178725983,6.3292110507323400,2.1025340458154362
-3.1233519411033961,-4.9067970119747413,1.3550420847745621,0.7947799835569023,-0.0197089290411914,0.0780748893678651,10.8700302795293062,4.3651877408409696,7.0122936002818612,2.1258112792316490
-3.0234687403499847,-4.9083853923501293,1.3097039796067125,0.8216128890110043,-0.0139107602579842,0.0409457148818581,10.9629667903564112,4.5228156920358042,7.6624201157245153,2.1482900800605957
-2.9235793812236595,-4.9095761794285355,1.2623316054707003,0.8503654775394827,-0.0115282910604282,0.0080582018798314,11.0548726602129737,4.6890040542906739,-2.3705144338758748,2.1699788363210133
