# x_m,y_m,w_tr_right_m,w_tr_left_m,psi,kappa,s,velocity,acceleration,time
-0.0421532713949498,-0.0040599886403773,2.0257022499109718,2.0535133609632563,-2.9605688456419679,0.0550179375480694,0.0000000000000000,8.0000000000000000,0.0000000000000000,0.0000000000000000
-0.0917544863832152,-0.0131383718276579,1.9822512764106928,2.0544538112019124,-2.9577945568971225,0.0824520156416078,0.0504251680176400,8.0000000000000000,0.0000000000000000,0.0063031460022050
-0.1412927850259821,-0.0224896400057123,1.9577411023178233,2.0563975391847173,-2.9522545201595110,0.1097149570285482,0.1008383532865540,8.0000000000000000,0.0000000000000000,0.0126047941608192
-0.1907658656761997,-0.0321122766878264,1.9806757461344371,2.0594068308232036,-2.9467338199181006,0.1093404781045663,0.1512385600890951,8.0000000000000000,0.0000000000000000,0.0189048200111369
-0.2401715810878292,-0.0420046693712080,2.0041877328229734,2.0629445916957385,-2.9412344699802246,0.1089270282424613,0.2016249089182884,8.0000000000000000,-0.0894203982004086,0.0252031136147860
-0.2895079384158464,-0.0521651095369858,2.0266473760608514,2.0646632828127447,-2.9357585423436010,0.1084731640021132,0.2519966341097104,7.9994369477201754,-1.5581571667334555,0.0314998008489745
-0.3387730992162375,-0.0625917926502101,2.0488778187293804,2.0654219527081095,-2.9303081664008088,0.1079774623976728,0.3023530814569170,7.9896223291154449,-1.6067905102441158,0.0377986638996808
-0.3879653794460046,-0.0732828181598525,2.0723919028071642,2.0671049103132657,-2.9248855280701052,0.1074385230314466,0.3526937058139089,7.9794919190952847,-1.6585418907665750,0.0441034123753368
-0.4370832494631606,-0.0842361894988062,2.0971091699312412,2.0696709830271471,-2.9194928688516919,0.1068549702730775,0.4030180686882786,7.9690251071884814,-1.7135030038437500,0.0504142640728876
-0.4861253340267324,-0.0954498140838854,2.0644889431145512,2.0704103841510584,-2.9141324848088361,0.1062254554747900,0.4533258358289063,7.9582005590947578,-1.7717618346310307,0.0567314681101387
-0.5350904122967582,-0.1069215033158256,2.0409457621791529,2.0701552385655515,-2.9088067254735011,0.1055486592130959,0.5036167748122258,7.9469962253759316,-1.8334022578908560,0.0630553054904373
-0.5839774178342911,-0.1186489725792841,2.0663890526469513,2.0705626147495568,-2.9035179926764676,0.1048232935476256,0.5538907526312937,7.9353893513328027,-1.8985036245381375,0.0693860896885987
-0.6327854386013956,-0.1306298412428393,2.0924908397471786,2.0720098832625435,-2.8982687393021465,0.1040481042878571,0.6041477332920483,7.9233564880901621,-1.9671403359926549,0.0757241672603852
-0.6815137169611507,-0.1428616326589913,2.0666840463355829,2.0718338912129606,-2.8930614679685887,0.1032218732586672,0.6543877754213502,7.9108735049077499,-2.0393814076967716,0.0820699184780344
-0.7301616496776461,-0.1553417741641608,2.0385665717609327,2.0704995838799567,-2.8878987296334055,0.1023434205556851,0.7046110298915427,7.8979156027302775,-2.1152900233311427,0.0884237579945507
-0.7787287879159874,-0.1680675970786908,2.0639350288459659,2.0698287124409553,-2.8827831221266136,0.1014116067815099,0.7548177374664687,7.8844573289843654,-2.1949230813887359,0.0947861355396961
-0.8272148372422892,-0.1810363367068449,2.0913041220739705,2.0700676712254005,-2.8777172886116191,0.1004253352553539,0.8050082264740031,7.8704725936247071,-2.2783307358255986,0.1011575366508504
-0.8756196576236821,-0.1942451323368084,2.0765040222672324,2.0692247747599222,-2.8727039159757184,0.0993835541878260,0.8551829105103680,7.8559346864263606,-2.3655559327430749,0.1075384834421767
-0.9239432634283086,-0.2076910272406881,2.0396982371799268,2.0668257215230534,-2.8677457331517853,0.0982852588134781,0.9053422861815933,7.8408162955137097,-2.4566339451240000,0.1139295354157902
-0.9721858234253241,-0.2213709686745119,2.0656270320320318,2.0651102284632445,-2.8628455093729031,0.0971294934749964,0.9554869308876682,7.8250895271102863,-2.5515919077619191,0.1203312903189326
-1.0203476607848974,-0.2352818078782292,2.0943762445020200,2.0640979975534370,-2.8580060523618824,0.0959153536526886,1.0056175006550434,7.8087259264870621,-2.6504483546599329,0.1267443850514587
-1.0684292530782091,-0.2494203000757109,2.0918027813115674,2.0643024848563507,-2.8532302064577388,0.0946419879343516,1.0557347280232698,7.7916965000797331,-2.7532127612684305,0.1331694966282937
-1.1164312322774537,-0.2637831044747487,2.0509540007203939,2.0653525892014124,-2.8485208506812665,0.0933085999209808,1.1058394199916846,7.7739717387382514,-2.8598850940588711,0.1396073432018785
-1.1643543847558377,-0.2783667842670565,2.0829068497144769,2.0671221412514318,-2.8438808967419673,0.0919144500648642,1.1559324560321464,7.7555216420640907,-2.9704553699905558,0.1460586851500179
-1.2121996512875817,-0.2931678066282690,2.1162119799220780,2.0683304061224042,-2.8393132869885789,0.0904588574378585,1.2060147861739312,7.7363157437828169,-3.0849032285241744,0.1525243262349856
-1.2599681270479182,-0.3081825427179422,2.1216669855082961,2.0686612059506309,-2.8348209923054717,0.0889412014276189,1.2560874291669708,7.7163231380912212,-3.2031975189384276,0.1590051148401958
-1.3076610616130924,-0.3234072676795539,2.0753808160421436,2.0697112595419447,-2.8304070099572103,0.0873609233617552,1.3061514707297004,7.6955125069093624,-3.3252959057211258,0.1655019452912745
-1.3552798589603650,-0.3388381606405033,2.1082236989135894,2.0704454861611232,-2.8260743613834136,0.0857175280604972,1.3562080618878376,7.6738521479588986,-3.4511444948748302,0.1720157592689110
-1.4028260774680041,-0.3544713047121097,2.1390850707480680,2.0668630982145504,-2.8218260899460526,0.0840105853187995,1.4062584174104487,7.6513100035795585,-3.5806774840649775,0.1785475473214880
-1.4503014299152979,-0.3703026869896159,2.1436108085471290,2.0569788687913491,-2.8176652586311635,0.0822397313211136,1.4563038143497407,7.6278536901852929,-3.7138168394776656,0.1850983504861552
-1.4977077834825412,-0.3863281985521844,2.1076522276260863,2.0697779656572335,-2.8135949477067737,0.0804046699924506,1.5063455906909589,7.6034505282514075,-3.8504720023274288,0.1916692620277480
-1.5450471597510458,-0.4025436344628998,2.1353110222766487,2.0692250151575138,-2.8096182523386704,0.0785051742902092,1.5563851441188781,7.5780675727127340,-3.9905396279630843,0.1982614293057676
-1.5923217347031338,-0.4189446937687676,2.1598782377325008,2.0599742277185067,-2.8057382801654165,0.0765410874426636,1.6064239309072803,7.5516716436410052,-4.1339033604596729,0.2048760557805339
-1.6395338387221414,-0.4355269795007150,2.1171052195963407,2.0669519786414203,-2.8019581488337497,0.0745123241410782,1.6564634649378600,7.5242293570572354,-4.2804336455934324,0.2115144031706186
-1.6866859565924179,-0.4522859986735905,2.1338433465451132,2.0669553610240756,-2.7982809834951974,0.0724188716929078,1.7065053168549229,7.4957071557215160,-4.4299875850496280,0.2181777937747650
-1.7337807274993247,-0.4692171622861640,2.1686294768327601,2.0657874201639972,-2.7947099142644611,0.0702607911446727,1.7565511133622196,7.4660713397282947,-4.5824088346477749,0.2248676129727322
-1.7808209450292372,-0.4863157853211268,2.1275847373618273,2.0647947991997162,-2.7912480736397351,0.0680382183840160,1.8066025366681882,7.4352880967198791,-4.7375275492959981,0.2315853119208623
-1.8278095571695436,-0.5035770867450917,2.1349371741243939,2.0628076728964415,-2.7878985938847807,0.0657513652307172,1.8566613240857948,7.4033235315143289,-4.8951603773349905,0.2383324104596983
-1.8747496663086427,-0.5209961895085921,2.1701931708667916,2.0610559133249540,-2.7846646043721845,0.0634005205273908,1.9067292677930803,7.3701436949256767,-5.0551105067929889,0.2451105002526860
-1.9216445292359490,-0.5385681205460836,2.1406896553721033,2.0597594874228831,-2.7815492288868100,0.0609860512411218,1.9568082147604158,7.3357146115348089,-5.2171677659651658,0.2519212481769109
-1.9684975571418892,-0.5562878107759430,2.1336614556182090,2.0576610076470820,-2.7785555828880155,0.0585084035872159,2.0069000668503216,7.3000023061478130,-5.3811087806398428,0.2587663999889668
-2.0153123156179018,-0.5741500951004681,2.1240307053453784,2.0552423024681143,-2.7756867707288109,0.0559681041865049,2.0570067810955956,7.2629728286545916,-5.5466971913666487,0.2656477842914819
-2.0620925246564399,-0.5921497124058787,2.1003597069789528,2.0536974070368594,-2.7729458828296600,0.0533657654756099,2.1071303701613293,7.2245922769655753,-5.7136856028760983,0.2725673168285663
-2.1088420586509677,-0.6102813055623150,2.1377592378676677,2.0533577997609838,-2.7703359923823143,0.0507089054085815,2.1572729029961994,7.1848268060190534,-5.8814731409970271,0.2795270051471719
-2.1555649463646667,-0.6285394214570632,2.1472510263073561,2.0540570998683441,-2.7678594684926963,0.0480566231503250,2.2074365056612093,7.1436450408058594,-6.0468330230515654,0.2865289524868843
-2.2022653202171840,-0.6469185648282487,2.1111139936844614,2.0557930833618241,-2.7655134894933506,0.0455357075915848,2.2576233348998000,7.1010366649036412,-6.2032219900158951,0.2935753478048612
-2.2489470840531682,-0.6654135509389252,2.1370500926884604,2.0576562767476254,-2.7632877337502073,0.0432527088211966,2.3078354010400490,7.0570368094983875,-6.3453865557970044,0.3006684125824995
-2.2956136921937276,-0.6840197401208431,2.0928010427076171,2.0557005702958566,-2.7611687064240473,0.0412411274108497,2.3580744554819653,7.0117184833214603,-6.4719503248121804,0.3078103456670215
-2.3422681382354913,-0.7027330496646044,2.1215549670139549,2.0531975526588684,-2.7591427286013839,0.0395029692045833,2.4083419926162279,6.9651660484718239,-6.5831872425280169,0.3150032987203173
-2.3889129550506092,-0.7215499538196634,2.1554831213180159,2.0492204902736355,-2.7571960981614296,0.0380384672187852,2.4586392571312747,6.9174638027680038,-6.6794954521831222,0.3222493702577724
-2.4355502147867463,-0.7404674837943238,2.1097454601389867,2.0464066527715294,-2.7553150980206151,0.0368476322975724,2.5089672506938845,6.8686952366783363,-6.7613141407082242,0.3295506052745173
-2.4821815288670881,-0.7594832277557413,2.1281549206921775,2.0444717577776048,-2.7534860028859232,0.0359302970194833,2.5593267380946281,6.8189428525105509,-6.8291165937763898,0.3369089949503110
-2.5288080479903390,-0.7785953308299226,2.0978206651424776,2.0439154427233426,-2.7516950845845245,0.0352861575685384,2.6097182529504948,6.7682880084427017,-6.8834036044500744,0.3443264761680153
-2.5754304621307234,-0.7978024951017260,2.1021669321062069,2.0442310448113092,-2.7499286160325038,0.0349148136853727,2.6601421030577757,6.7168107865319433,-6.9246972615578759,0.3518049308495743
-2.6220490005379835,-0.8171039796148598,2.0927973165581628,2.0450624029349029,-2.7481728739015399,0.0348158067942179,2.7105983754888614,6.6645898837818933,-6.9535351366756473,0.3593461851134901
-2.6686634317373792,-0.8364996003718845,2.0791496869500334,2.0444891796959412,-2.7464141400394837,0.0349886563817126,2.7610869415270596,6.6117025253042039,-6.9704648818837667,0.3669520082578561
-2.7152730635296911,-0.8559897303342108,2.0821589814744885,2.0418458976203846,-2.7446387016984786,0.0354328946793614,2.8116074615339168,6.5582243985753781,-6.9707351574692149,0.3746241115730618
-2.7618767429912174,-0.8755752994221018,2.0513561743960271,2.0400150517163609,-2.7428328506232909,0.0361480996748986,2.8621593898438165,6.5042708318591727,-6.9551573882466746,0.3823641225614858
-2.8084728564737778,-0.8952577945146708,2.0914055121495423,2.0397615892134726,-2.7409828810523118,0.0371339264516244,2.9127419797809542,6.4499549847993620,-6.9298261167399513,0.3901735572051356
-2.8550593296047060,-0.9150392594498816,2.1106681819415667,2.0402496454007779,-2.7390750866846791,0.0383901368232325,2.9633542888940707,6.3953459877395966,-6.8952683533920487,0.3980538410881396
-2.9016336272868597,-0.9349222950245510,2.0693735319716882,2.0404801445569283,-2.7370957566691754,0.0399166272022468,3.0139951845047275,6.3405114283560575,-6.8519961385503967,0.4060063320679234
-2.9481927536986117,-0.9549100589943452,2.0261558371133566,2.0371377983723535,-2.7350311706736647,0.0417134546062507,3.0646633496652869,6.2855174034488686,-6.8005040281218774,0.4140323180426942
-2.9947332522938570,-0.9750062660737827,2.0438092206729319,2.0345079115129683,-2.7328675930985149,0.0437808606688122,3.1153572896233692,6.2304285842376839,-6.7412669143099988,0.4221330145474500
-3.0412512058020043,-0.9952151879362315,2.0857479906455958,2.0331568499325505,-2.7305912665032634,0.0461192934858561,3.1660753388901610,6.1753082941926758,-6.6747381612126224,0.4303095621824356
-3.0877422362279892,-1.0155416532139132,2.0543855723360251,2.0330858504368581,-2.7281884043229452,0.0487294270849617,3.2168156690108316,6.1202185984478463,-6.6013480345425384,0.4385630238785003
-3.1342015048522578,-1.0359910474978984,2.0666292095331937,2.0339470249588434,-2.7256451829593584,0.0516121782599358,3.2675762971362188,6.0652204038576851,-6.5215024044983414,0.4468943820045035
-3.1806237122307794,-1.0565693133381096,2.0543651210640461,2.0362155902558348,-2.7229477333427701,0.0547687204647423,3.3183550954962122,6.0103735687698405,-6.4355817011205678,0.4553045353228574
-3.2270030981950426,-1.0772829502433203,2.0516028601067693,2.0376173337425172,-2.7200821320716120,0.0582004944038979,3.3691498018765329,5.9557370215933094,-6.3439401019255532,0.4637942958004561
-3.2733334418520541,-1.0981390146811560,2.0512933388539496,2.0351824561840099,-2.7170343922517928,0.0619092148979679,3.4199580312022233,5.9013688872432803,-6.2469049324086718,0.4723643852837296
-3.3196080615843373,-1.1191451200780913,2.0088492791531376,2.0311043177703234,-2.7137904541730440,0.0658968735365302,3.4707772883329073,5.8473266205387366,-6.1447762611988077,0.4810154320483722
-3.3658198150499374,-1.1403094368194542,1.9690925690228520,2.0281746680780435,-2.7103361759780435,0.0701657365562920,3.5216049821768558,5.7936671456145472,-6.0378266729655259,0.4897479672365160
-3.4119610991824172,-1.1616406922494227,2.0057124168374405,2.0261375681664013,-2.7066573245006471,0.0747183373035742,3.5724384412330008,5.7404470003856689,-5.9263012039308638,0.4985624211967750
-3.4580238501908593,-1.1831481706710256,2.0421894783077019,2.0253921512371251,-2.7027395664727170,0.0795574625497856,3.6232749306723933,5.6877224850637926,-5.8104174267350839,0.5074591197457627
-3.5039995435598623,-1.2048417133461433,2.0052407625740174,2.0257420927753302,-2.6985684603253364,0.0846861318340790,3.6741116710729909,5.6355498136753406,-5.6903656736315771,0.5164382803734301
-3.5498791940495491,-1.2267317184955078,1.9702560415368271,2.0268368480906047,-2.6941294488390888,0.0901075689039182,3.7249458589242295,5.5839852674613057,-5.5663093895579907,0.5255000084189542
-3.5956533556955552,-1.2488291412987012,1.9759875104320852,2.0249996279416131,-2.6894078529306666,0.0958251642114244,3.7757746890203254,5.5330853489510368,-5.4383856094108376,0.5346442932489986
-3.6413121218090407,-1.2711454938941578,1.9678179458676068,2.0196542046040169,-2.6843888668988631,0.1018424273085708,3.8265953788638400,5.4829069353916644,-5.3067055570302797,0.5438710044760476
-3.6868451249766787,-1.2936928453791618,1.9553831384839775,2.0142843809376472,-2.6790575554923910,0.1081629278619316,3.8774051952033277,5.4335074300791311,-5.1713553668985641,0.5531798882612219
-3.7322415370606663,-1.3164838218098496,1.9652650243579080,2.0102229822125657,-2.6733988532051205,0.1147902238858459,3.9282014828311000,5.3849449099726465,-5.0323969334935068,0.5625705637536333
-3.7774900691987185,-1.3395316062012084,1.9285035618029436,2.0069302272619076,-2.6673975662509388,0.1217277756715534,3.9789816957688076,5.3372782677784922,-4.8898688975095261,0.5720425197269202
-3.8225789718040661,-1.3628499385270763,1.8936048718842264,2.0047765691443122,-2.6610383777208422,0.1289788437781240,4.0297434309697850,5.2905673464586798,-4.7437877828929356,0.5815951114832356
-3.8674960345654590,-1.3864531157201421,1.9262284983728102,2.0034738206989364,-2.6543058564781004,0.1365463693550458,4.0804844646675544,5.2448730638520855,-4.5941493039886971,0.5912275581056113
-3.9122285864471729,-1.4103559916719473,1.9051763200848975,2.0020957442713074,-2.6471844704034444,0.1444328349877804,4.1312027914993577,5.2002575247860143,-4.4409298677710405,0.6009389401513223
-3.9567634956889943,-1.4345739772328836,1.9165784872747584,2.0004176197903831,-2.6396586046604913,0.1526401042216341,4.1818966665318209,5.1567841177039906,-4.2840883023178922,0.6107281978915811
-4.0010871698062305,-1.4591230402121924,1.9157155286356238,1.9981908865689704,-2.6317125857100869,0.1611692379320390,4.2325646503126366,5.1145175924391220,-4.1235934953486515,0.6205941302165522
-4.0451855555897112,-1.4840197053779689,1.9125284191269407,1.9956559627126973,-2.6233307118602882,0.1700193066237487,4.2832056570669010,5.0735238593377767,-3.9603613940000915,0.6305353945888977
-4.0890441391057806,-1.5092810544571575,1.9278085323512604,1.9926282449007044,-2.6144973903381032,0.1791508834203308,4.3338190061492989,5.0338603520375624,-3.7981421256932544,0.6405505177946497
-4.1326479478178877,-1.5349247157615644,1.8986825090393649,1.9893466908460520,-2.6052008545090040,0.1884097713698078,4.3844044734229852,4.9955468624981991,-3.6419786108938537,0.6506379469301168
-4.1759816293781071,-1.5609684789180240,1.8704154630825947,1.9857627432800042,-2.5954410208800702,0.1975831268198474,4.4349622181997477,4.9585509985510487,-3.4942848546242788,0.6607961240914237
-4.2190296228079509,-1.5874294578391139,1.8404994783196942,1.9795165379424913,-2.5852275587729636,0.2065567328422999,4.4854925372547294,4.9228135601589962,-3.3550180309140516,0.6710235210778939
-4.2617761984620790,-1.6143238953111869,1.8369225287142750,1.9705574413743967,-2.5745718523750063,0.2153143238721822,4.5359958093971695,4.8882731685912564,-3.2237120585250603,0.6813186644271919
-4.3042054582193723,-1.6416671620600523,1.8484568838605215,1.9591182989134497,-2.5634851263147209,0.2238582708116242,4.5864725002559359,4.8548707435705749,-3.0999346019674205,0.6916801434967476
-4.3463013354829245,-1.6694737567509703,1.8251906700150293,1.9486057854833290,-2.5519784290327312,0.2321911459592186,4.6369231651761629,4.8225493686452348,-2.9832855088795114,0.7021066134309284
-4.3880475951800513,-1.6977573059886590,1.8606274932857989,1.9385892671253975,-2.5400626239286908,0.2403156702244831,4.6873484500655982,4.7912541541476390,-2.8733932911274516,0.7125967976269928
-4.4294278337622899,-1.7265305643172910,1.8334373069960770,1.9295168687799038,-2.5277483792512196,0.2482347518374226,4.7377490903390029,4.7609321194884462,-2.7699118089944941,0.7231494897185425
-4.4704254792053861,-1.7558054142204897,1.8084804639141028,1.9211576193706950,-2.5150461566402313,0.2559515274068659,4.7881259081100040,4.7315320945217980,-2.6725171518566917,0.7337635550729629
-4.5110237910093183,-1.7855928661213392,1.7844837726661622,1.9126332152895871,-2.5019661982651562,0.2634694043368115,4.8384798077809803,4.7030046396344032,-2.5809047092578328,0.7444379317996289
-4.5512058601982774,-1.8159030583823748,1.7677755334803678,1.9037186969530184,-2.4885185125348022,0.2707921036600887,4.8888117701826914,4.6753019841337728,-2.4947864266395361,0.7551716312660445
-4.5909546093206686,-1.8467452573055860,1.8113223251651029,1.8942284019864535,-2.4747128583850069,0.2779237024130847,4.9391228454168159,4.6483779824405120,-2.4138882405000852,0.7659637381196669
-4.6302527924491228,-1.8781278571324189,1.7910417551615452,1.8853000782873208,-2.4605587281774755,0.2848686747373417,4.9894141445558189,4.6221880875247283,-2.3379476883420081,0.7768134098138121
-4.6690829951804869,-1.9100583800437736,1.7731375135983767,1.8770573665948098,-2.4460653292691106,0.2916319309544391,5.0396868303558771,4.5966893409659004,-2.2667116890463079,0.7877198756367967
-4.7074276346358284,-1.9425434761600044,1.7573725043844017,1.8694675312214064,-2.4312415643341581,0.2982188539349755,5.0899421071399216,4.5718403789616522,-2.1999344896129571,0.7986824352443236
