# x_m,y_m,w_tr_right_m,w_tr_left_m,psi,kappa,s,velocity,acceleration,time
0.0000482034734789,0.1272294203194911,1.7847476642350470,2.1775748869967431,-3.0735118912747850,-0.0641761942476437,0.0000000000000000,6.2006692547386510,-4.5046850996115966,0.0000000000000000
-0.0996705631443442,0.1204299823140307,1.7937537406669068,2.1934395449352522,-3.0670974606675570,-0.1064060704603825,0.0999503115201247,6.1276267713241719,-3.1855993602042671,0.0162147812331603
-0.1992938993171574,0.1123518605537775,1.8039326082091822,2.2072165922922293,-3.0522412512877439,-0.1439787515445242,0.1999006249832391,6.0754429089086228,0.0000000000000000,0.0325959568032744
-0.2987666456786949,0.1025929745832060,1.8158610341650065,2.2196755462708038,-3.0383160194371062,-0.2302836144802784,0.2998509282548820,6.0754429089086228,0.0000000000000000,0.0490474821933134
-0.3981265565406238,0.0917437717446676,1.8288249147939355,2.2300043175701365,-3.0062073779492571,-0.1980670994177154,0.3998014014339631,6.0754429089086228,1.1891439981513299,0.0654990355496161
-0.4967677251547329,0.0756215542051587,1.8447112305354945,2.2396795415528969,-2.9987223090308435,-0.0278934350039439,0.4997514191625676,6.0949746895948831,-1.7513617602203675,0.0819241116687621
-0.5959540782895658,0.0632861968256717,1.8415403850340177,2.2518166893218567,-3.0006314670731307,-0.1156093667065448,0.5997018753389525,6.0661864175999769,-0.5725357612811059,0.0983617618726148
-0.6946567404065492,0.0475406472421187,1.8417717165371463,2.2592473089458589,-2.9756118656158268,-0.2161004294639622,0.6996525523785180,6.0567455765564082,-0.4781542469375226,0.1148512838938122
-0.7931018933020616,0.0302595985425179,1.8438315821805606,2.2652738154908176,-2.9574327581366191,-0.1595311871255724,0.7996029539423876,6.0488497717461849,-2.4759203442877498,0.1313643753507935
-0.8911664893235010,0.0109366876400598,1.8475527708726753,2.2695241314037884,-2.9437214874173208,0.0043877646737255,0.8995531409286681,6.0077987781220230,-5.3801086867090815,0.1479444699886806
-0.9891004156154789,-0.0090370620119503,1.8503156354626473,2.2768555492980300,-2.9583098731613142,0.0890935190959330,0.9995031514045242,5.9176145801504205,-5.2118477961768113,0.1647069934288468
-1.0876873782112086,-0.0254910239575449,1.8484005106791610,2.2896232094712450,-2.9615313361034303,-0.0967777968059624,1.0994537494895726,5.8289199437371426,-1.1335935992020676,0.1817248803437986
-1.1857483834160427,-0.0448334574715366,1.8486004541534109,2.2995921176836309,-2.9389638911066172,-0.2182658247525927,1.1994041895887821,5.8094493157466163,-1.0225872142418262,0.1989009018070740
-1.2834923822271418,-0.0657188258097118,1.8507399355648326,2.3077984888141385,-2.9178998084153287,-0.1470619284300804,1.2993546168725381,5.7918291837926361,-3.4264558423342555,0.2161318349818490
-1.3806515008784024,-0.0891739463423119,1.8546217220194086,2.3143362765493807,-2.9095661233834367,0.0091518568069347,1.3993047895401656,5.7323935304612030,-8.1988386987441757,0.2334779372129353
-1.4780337125654648,-0.1116854425584547,1.8541986539866580,2.3233775562562853,-2.9197292689234535,0.0021490080040020,1.4992550902648420,5.5876097574014834,-3.3807502958705156,0.2511369958161856
-1.5756494836806252,-0.1331609680548805,1.8499045968263750,2.3328220176279557,-2.9099957111002173,-0.1675938528109432,1.5992052626796760,5.5268046510692548,-0.5398987907360933,0.2691226797652487
-1.6725751615957802,-0.1575638578938743,1.8479643136393906,2.3398207412703895,-2.8862271571086184,-0.2615216000553272,1.6991556907518282,5.5170321206769612,-0.3867179702379748,0.2872233507798471
-1.7690609421466015,-0.1836539577907137,1.8482602410387652,2.3444684128724869,-2.8577171740160026,-0.1707227431467414,1.7991066745445268,5.5100215732272888,-3.1903145894899434,0.3053516716472698
-1.8644381711084612,-0.2135408428013980,1.8507242772069163,2.3470574151617773,-2.8520994793193601,-0.0539466265191275,1.8990568706428081,5.4518430461414304,-2.9473048893179961,0.3235876560475291
-1.9606236080571191,-0.2407129880359915,1.8429599710138698,2.3532992470894594,-2.8469332432513204,-0.1905953259935025,1.9990066768339863,5.3975390220741692,0.0000000000000000,0.3420126327997060
-2.0556876074423611,-0.2715839413888960,1.8366808078131591,2.3563438275444097,-2.8139993416029583,-0.2917610707326898,2.0989575634735478,5.3975390220741692,0.0000000000000000,0.3605304955202523
-2.1498764587067209,-0.3050283037233715,1.8328734730211946,2.3567962077781810,-2.7886098551954697,-0.2479027608684634,2.1989078765018690,5.3975390220741692,1.2777428904745052,0.3790482519680626
-2.2432505255127864,-0.3406844523905254,1.8316204646442564,2.3547478897828200,-2.7644434093557284,-0.1449825229094047,2.2988582506366253,5.4211483335835116,-1.5020332851961531,0.3975256089428877
-2.3357135469378836,-0.3786404062579141,1.8320705799986912,2.3505252737785667,-2.7596277494636556,-0.0566259898018446,2.3988085621170869,5.3933840828645359,-3.6817117257627325,0.4160100533241252
-2.4287398061355567,-0.4151941757665856,1.8285909842915051,2.3488899927677012,-2.7531238392282882,-0.1699415801815130,2.4987588645958976,5.3247174069650862,-0.8817245335875068,0.4346608008606461
-2.5207012850285548,-0.4543496229308511,1.8277720803721624,2.3449281820858134,-2.7256563250523262,-0.2703782870926491,2.5987091654599817,5.3081407478715521,-0.8567763173607806,0.4534610706298086
-2.6115801453728102,-0.4959560830773821,1.8295957930611850,2.3382033397180031,-2.6990750540489730,-0.2564404258960030,2.6986594770322601,5.2919833786094266,-1.0516540688651721,0.4723193991511860
-2.7013311125342283,-0.5399428313357491,1.8341004621287138,2.3289034114780853,-2.6743937172590222,-0.0807899060736774,2.7986098153446184,5.2720832428497522,-6.2272886702776127,0.4912421003975649
-2.7900459090286578,-0.5859826154281095,1.8385070653087046,2.3168130037921557,-2.6829251348646457,0.0222420839521917,2.8985596869619408,5.1526719586347287,-3.2181475362550094,0.5104175859961313
-2.8805343432555834,-0.6284316480822204,1.8335751628776304,2.3102984431033740,-2.6788399152862339,-0.2038796430769806,2.9985100601583947,5.0898642632982636,0.0000000000000000,0.5299343093995447
-2.9688708141274360,-0.6751951259258808,1.8324106237464728,2.3013778986990934,-2.6421693626459390,-0.3281002220432329,3.0984608227674322,5.0898642632982636,0.0000000000000000,0.5495715251362702
-3.0560057555455731,-0.7241607613614855,1.8341676883797031,2.2891233810158247,-2.6132522190077423,-0.2011800799764132,3.1984114679357085,5.0898642632982636,3.2880843568151783,0.5692087177995393
-3.1414909127562902,-0.7759517312701609,1.8383550858555953,2.2737113678070977,-2.6019533206055088,-0.0229807723179606,3.2983615388082312,5.1540282059567541,-0.9334248863905160,0.5887227982474751
-3.2274970628254991,-0.8268736738322030,1.8383873456209112,2.2559692010578911,-2.6086583495443927,-0.0751714694760072,3.3983120369761703,5.1358946818449880,-0.8613289640564079,0.6081496684500547
-3.3136687920392305,-0.8775135151104564,1.8340412829677588,2.2417174358822716,-2.5869265222255842,-0.2914940877006982,3.4982618265726040,5.1191048910470789,-0.0594038873135545,0.6276425585054848
-3.3973812121543294,-0.9321243453590078,1.8332580086292951,2.2248269635004565,-2.5503885829816531,-0.3222418245712353,3.5982123746549579,5.1179448984286360,0.0000000000000000,0.6471697758459942
-3.4796264126867968,-0.9889210176588267,1.8354977247865434,2.2045947304596676,-2.5225099912955664,-0.1303764728126315,3.6981630374589574,5.1179448984286360,-5.0167169466725765,0.6666992285438315
-3.5601653237612818,-1.0481121008330143,1.8399765457131572,2.1805818612476950,-2.5243261757201751,0.0342675461416402,3.7981135278249250,5.0190151768705915,-5.5464188550117957,0.6864192411755310
-3.6426158517071121,-1.1046093450958521,1.8407678084759453,2.1590710026536195,-2.5293600949729855,-0.1226479439033455,3.8980636562282487,4.9073193081542232,-0.9840358254779165,0.7065576172405551
-3.7237465684263262,-1.1629865713855931,1.8417054758586449,2.1401520072877296,-2.4998087800027813,-0.3146720184978021,3.9980141126787174,4.8872357352948486,-0.9342927101233801,0.7269670091949798
-3.8027160830126268,-1.2242554929664766,1.8458490374980063,2.1179605782229136,-2.4664569164815817,-0.2858819414291412,4.0979644252629228,4.8680907382154484,-1.3869792171457578,0.7474584428452241
-3.8797751861574188,-1.2879105203446743,1.8531020400827534,2.0927476587295906,-2.4426607970360728,-0.0510974385779541,4.1979147523659330,4.8395298720662359,-7.2980241265656209,0.7680505799127048
-3.9557407492139509,-1.3528672288060342,1.8620952251601139,2.0610804437969477,-2.4562424864584438,0.0314591701758699,4.2978654439324755,4.6863807213650865,-2.9560679912289971,0.7890355955888888
-4.0345002382114110,-1.4144057901498790,1.8611675529968423,2.0334949612037434,-2.4489495146436213,-0.2594108137009886,4.3978156897521394,4.6229043707193851,-0.2596546790555896,0.8105088332931781
-4.1095099513053759,-1.4804632861243154,1.8632060772042549,2.0062130557134212,-2.4043861396074302,-0.3865197246381586,4.4977659265345080,4.6172870527518519,-0.0959604707837600,0.8321426354952580
-4.1824794474397535,-1.5487679594524792,1.8686934024619450,1.9745858406315067,-2.3716839885058150,-0.2950892703050845,4.5977162930399498,4.6152093299286152,-2.0321390103078660,0.8537944969989255
-4.2530114534534560,-1.6195867196666816,1.8776822887239477,1.9394597312923734,-2.3453976004512200,-0.1615545994823984,4.6976665840379939,4.5709880100698843,-5.0951003294478294,0.8755554688785173
-4.3222907923415468,-1.6916314317878722,1.8887046348096961,1.9009659132690897,-2.3393891246539655,-0.1255259363198650,4.7976169084066331,4.4581854522848756,-2.7331801993413607,0.8976948872395358
-4.3919667173894714,-1.7632926556276602,1.8970650703101886,1.8668208171721101,-2.3203048854827779,-0.2983498351606604,4.8975672237312997,4.3964818982270240,-0.9578464093053950,0.9202706230335830
-4.4584464077524029,-1.8379285176575306,1.9087951665246128,1.8303998833285853,-2.2797488110208821,-0.3941017608283636,4.9975175170359876,4.3746518744165304,-0.7541969242469452,0.9430613581644106
-4.5220870872259393,-1.9149995701916909,1.9245020069600638,1.7897425189413041,-2.2415236687574955,-0.2718098927765888,5.0974679208499625,4.3573861945056676,-3.0429366015037593,0.9659541589115130
-4.5826721594945070,-1.9944947998286437,1.9440392380075093,1.7444634546861137,-2.2254138492822202,-0.0002499807673940,5.1974181210339516,4.2870188013506088,-8.1081709989483297,0.9890789894190841
-4.6437969195654283,-2.0735758183401369,1.9589334055260224,1.6941043761614201,-2.2414736975004264,-0.0233820225854776,5.2973683275497105,4.0936174065871942,-2.4973411928749791,1.0129316430925821
-4.7069035415763407,-2.1510842482216379,1.9610695698641871,1.6511871621421839,-2.2207397781451395,-0.3692016088075599,5.3973183272711900,4.0321811676125217,-0.7477217227442068,1.0375323020453726
-4.7646975907127205,-2.2326315446869853,1.9677383437605831,1.6061357770658016,-2.1676700906680271,-0.4812385168738265,5.4972688834296504,4.0136036880052055,-0.6361643805774855,1.0623777479408525
-4.8192380781476594,-2.3163897540795109,1.9791490400840166,1.5552155484404109,-2.1245396904541467,-0.4194882854282832,5.5972193832297155,3.9977299394508314,-1.7193571368657765,1.0873300229172738
-4.8697914869410246,-2.4026127971251894,1.9926386836015453,1.5005166431973460,-2.0838140514734036,-0.3753006179880312,5.6971696723372816,3.9545093479423925,-2.6155916326389819,1.1124676691815198
-4.9173364006938822,-2.4905306397568263,1.9965358929626247,1.4453555473786777,-2.0495168694300858,-0.3893018274298166,5.7971199893791399,3.8878381855595756,-1.2833437418331559,1.1379575665916710
-4.9618611562066270,-2.5800158952422234,1.9877088992637266,1.3922752600137827,-2.0059923714118462,-0.4856841193555620,5.8970703010482710,3.8547042095529802,-0.4677790880715438,1.1637760397929866
-5.0015825510233229,-2.6717343641640379,1.9841478024619130,1.3346066939400396,-1.9524283065003001,-0.5439954597154375,5.9970206224461817,3.8425558164786002,-0.1172175600261292,1.1897464035483709
-5.0362844015183335,-2.7654683727937641,1.9858521974572609,1.2724892761571820,-1.8972467413857563,-0.3499650632703024,6.0969720246453285,3.8395055780373042,-3.0153025934736926,1.2157684299462597
-5.0656621996516433,-2.8610035072579105,1.9885187707644725,1.2053417380330280,-1.8824697743513177,-0.0587555452981411,6.1969220968826413,3.7601919711245420,-5.7581067495368314,1.2420721273212523
-5.0975788310703560,-2.9557211399533170,1.9704271489329548,1.1651786102819839,-1.8855014745952934,-0.2111098590166302,6.2968725911512538,3.6038857401940745,-1.1875073351049401,1.2692175481565018
-5.1275353853067749,-3.0510764838693700,1.9472816989958690,1.1488146667723234,-1.8402687730129461,-0.5735014296116013,6.3968227625121283,3.5707995330320803,-1.1667157975309483,1.2970794452445482
-5.1507646247037338,-3.1482905456349375,1.9309921363249809,1.1270706432496884,-1.7708579560700688,-0.5713596751117351,6.4967736072705433,3.5379910748883625,-0.6935672069371004,1.3251997965873075
-5.1672380330826311,-3.2468738198435259,1.9205658457878727,1.0982272606269743,-1.7260533980124544,-0.1677035142449916,6.5967237705385626,3.5183428677217199,-6.3628694337731151,1.3535290009818060
-5.1816744727714594,-3.3457764937067447,1.8978614491708914,1.0690629646947802,-1.7373338727107104,-0.0281259930974908,6.6966745068449223,3.3326850383729023,-3.5938222229880274,1.3827073192360475
-5.2003675982955402,-3.4439628132564923,1.8454584676538623,1.0630945255926050,-1.7204309935638706,-0.4722753090709309,6.7966244257472619,3.2231017801987631,-0.2743753213041388,1.4131994391503786
-5.2114530986081897,-3.5432978361986227,1.7997091119617075,1.0560447459951172,-1.6429252909474368,-0.7960125405530027,6.8965760895658059,3.2145818617310469,-0.1621238525010390,1.4442514974303291
-5.2147628698104684,-3.6431934385839315,1.7608493015724396,1.0410146780598986,-1.5613064299400721,-0.7409324907658504,6.9965265070803673,3.2095370152526903,-0.4546038913827158,1.4753687352736886
-5.2095578119081152,-3.7430081000078967,1.7295654030925618,1.0171963988655963,-1.4948123663007808,-0.5149020429468584,7.0964767910366806,3.1953485375173791,-3.1371756979129284,1.5065793738191611
-5.1995925663786915,-3.8424604486988221,1.7060287992883891,0.9959651051596794,-1.4583771765947677,-0.4526096104994241,7.1964271576123124,3.0956628618403093,-1.8249310056177688,1.5383549851575338
-5.1871342279867045,-3.9416312049127700,1.6925308538394519,0.9861652645161386,-1.4043354337728990,-0.7241087422788710,7.2963773906462359,3.0361692962700020,0.0000000000000000,1.5709554316331351
-5.1664988936987539,-4.0394282723158215,1.6878190743580854,0.9693580421762686,-1.3136273771733697,-0.9220765080556342,7.3963277954168642,3.0361692962700020,0.0000000000000000,1.6038753366244081
-5.1363523440462604,-4.1347237825164749,1.6929341544754515,0.9428800980681874,-1.2200117533832278,-0.7655178044678752,7.4962780266339708,3.0361692962700020,1.4432088540050489,1.6367951844536770
-5.0978737912910885,-4.2269706393687745,1.7065535393338771,0.9070852807425809,-1.1605998880648611,-0.4033102744415633,7.5962284224373953,3.0833135727626377,0.2047383743499072,1.6694614727471597
-5.0566429395280368,-4.3180207745056141,1.7275315781717415,0.8880468073339057,-1.1393896525082425,-0.3637111420976279,7.6961789614331577,3.0899433667497984,-1.8045293114103864,1.7018432575894604
-5.0142872374999268,-4.4085523783916134,1.7503678817845014,0.8884711243243578,-1.0878938814875037,-0.7287963885624625,7.7961288328511120,3.0310105681818871,0.0000000000000000,1.7345015237618455
-4.9639139029691615,-4.4948814557536103,1.7800341872433867,0.8808811710317556,-0.9937026921583092,-0.9252178959334437,7.8960797329467187,3.0310105681818871,0.0000000000000000,1.7674776212868242
-4.9053526624609480,-4.5758808319525865,1.8191516359435755,0.8638317279713079,-0.9029405318220745,-0.7858063356667292,7.9960313103954217,3.0310105681818871,0.2186608663875888,1.8004539422861461
-4.8402228712335864,-4.6516965297690938,1.8621830058508402,0.8437601431753351,-0.8366191307266448,-0.6645740313766326,8.0959808463659488,3.0382124956446006,-1.4453479541561416,1.8333904598335873
-4.7714658235531910,-4.7242370915309655,1.8647933223574125,0.8529596454180994,-0.7700936143469188,-0.7889507944271602,8.1959291565390178,2.9902867751155529,0.0000000000000000,1.8665490638854600
-4.6968512333578785,-4.7907455099401703,1.8564836825565818,0.8661730731313301,-0.6789064205220785,-0.9505900091247796,8.2958826796850698,2.9902867751155529,0.0000000000000000,1.8999751298995431
-4.6160756136514651,-4.8496143451429168,1.8575183503253749,0.8698833371778573,-0.5800661907080538,-0.7563534013328022,8.3958338702586861,2.9902867751155529,1.7368278126044205,1.9334004158638811
-4.5298556855710492,-4.9001715228627454,1.8672485994140802,0.8651647450627878,-0.5277108469707983,-0.3484421341760594,8.4957833785975794,3.0477869297753126,1.4589361047768821,1.9665068379527448
-4.4433696290827100,-4.9502753563709918,1.8391263133504223,0.8734553766275126,-0.5104123791938515,-0.3831026704703472,8.5957345271608965,3.0952624845100147,-1.3920653149710611,1.9990480538286537
-4.3554523952150284,-4.9978199680155910,1.7674352157908733,0.8978690032078847,-0.4511283218647519,-0.7640987551002748,8.6956841650160701,3.0499798359679193,0.0000000000000000,2.0315771658287156
-4.2636464679926336,-5.0373417802449465,1.7021115768390842,0.9154541532007674,-0.3576681702866920,-0.9137449492933680,8.7956356628290404,3.0499798359679193,0.0000000000000000,2.0643483653737937
-4.1684246571774191,-5.0677202721996801,1.6462413650820591,0.9235144284281315,-0.2684691389135523,-0.5621668770753377,8.8955858805795405,3.0499798359679193,3.2705117726388613,2.0971191452234841
-4.0710636240903257,-5.0903233841415920,1.5948759562193389,0.9244741931560183,-0.2452906952906850,-0.1431637767740209,8.9955362254175881,3.1553374714529658,1.5224556321229623,2.1293335638861746
-3.9745360849489160,-5.1162567009613475,1.5234022391498478,0.9432164997768947,-0.2398505787830270,-0.3584048375610532,9.0954867268368922,3.2032007377611946,-0.7709028182889650,2.1607717649728535
-3.8769350649310232,-5.1377991421237015,1.4517209747707396,0.9660963511701670,-0.1736453287039037,-0.7647732015868117,9.1954368938190765,3.1790550853302029,0.0000000000000000,2.1920930312312694
-3.7778285776477945,-5.1507615446082333,1.3883809591867147,0.9806492469380548,-0.0869718397031483,-0.8410519444457065,9.2953874801094614,3.1790550853302029,0.0000000000000000,2.2235333754868973
-3.6779749538512494,-5.1551468309742399,1.3334537200887600,0.9866318101106696,-0.0055186595253316,-0.6048864518555375,9.3953373521544705,3.1790550853302029,2.3867808644558917,2.2549734950703013
-3.5780782602886392,-5.1518639097909036,1.2855922079443678,0.9852113568509620,0.0339452612211208,-0.2767428650756685,9.4952879747450183,3.2532309635719021,5.5710886489317613,2.2860512866456952
-3.4781892932485743,-5.1483624484988519,1.2432849349883905,0.9922219363753915,0.0498024993654833,-0.3032422065586893,9.5952382922408166,3.4201134280691483,4.9529225814481030,2.3160063771160733
-3.3784474721915223,-5.1419135696598905,1.2079725383548114,1.0010474561102685,0.0945634994778068,-0.5008700133668307,9.6951883743121012,3.5619188505461237,2.1453289601423955,2.3446370330863742
-3.2792711111610791,-5.1294957786764490,1.1788001972621207,1.0039200208600103,0.1499268310318298,-0.5591971647192810,9.7951391227842830,3.6216184736173380,1.1655026778479949,2.3724647574961781
-3.1808531058108720,-5.1120648898646692,1.1551867564105149,1.0015668645367837,0.2063472554660581,-0.3074174566561564,9.8950888084360251,3.6536425141221351,4.3962525161924715,2.3999413485958461
-3.0837060689840676,-5.0885587917004802,1.1361973976845430,0.9935945784137419,0.2113796084168413,0.1551312755625946,9.9950392132132588,3.7719912590027911,6.2928049230633993,2.4268617187167045
-2.9854674248017901,-5.0701380235827029,1.1118995759648354,0.9985138600004209,0.1753363316358874,0.1667492702170913,10.0949899806381325,3.9352076718546725,5.9177442429264921,2.4527987078411706
