# x_m,y_m,w_tr_right_m,w_tr_left_m,psi,kappa,s,velocity,acceleration,time
-0.0020636810677291,0.5272678420170778,1.4272839529519223,0.5727160470480778,0.0015056350305647,-0.0002231108031127,0.0005788570586456,8.0000000000000000,0.0000000000000000,0.0000000000000000
0.0979043833493828,0.5274183575505383,1.4274555653593335,0.5725444346406666,0.0015279390109832,-0.0003353888755955,0.1005536322785393,8.0000000000000000,0.0000000000000000,0.0124960222159829
0.1978724409527366,0.5275733324553500,1.4275784202061237,0.5724215797938762,0.0015726914600116,-0.0004491123491994,0.2005349063173209,8.0000000000000000,0.0000000000000000,0.0249920444319526
0.2978404914973311,0.5277327956196100,1.4278031493612642,0.5721968506387357,0.0016177328972722,-0.0004520032054307,0.3005158282465340,8.0000000000000000,0.0000000000000000,0.0374880666479091
0.3978085347342704,0.5278967759337695,1.4279226361466308,0.5720773638533694,0.0016630633335595,-0.0004548940465104,0.4004963985686636,8.0000000000000000,0.0000000000000000,0.0499840888638522
0.4977765704107427,0.5280653022880533,1.4281072944867119,0.5718927055132881,0.0017086827550497,-0.0004577848379241,0.5004766177808626,8.0000000000000000,0.0000000000000000,0.0624801110797819
0.5977445982699994,0.5282384035701172,1.4282976280939190,0.5717023719060805,0.0017545911656365,-0.0004606757280725,0.6004564863742167,8.0000000000000000,0.0000000000000000,0.0749761332956981
0.6977126180513190,0.5284161086709321,1.4284380881664664,0.5715619118335336,0.0018007885811668,-0.0004635665018258,0.7004360048330268,8.0000000000000000,0.0000000000000000,0.0874721555116007
0.7976806294899900,0.5285984464812892,1.4286234975186598,0.5713765024813403,0.0018472749625222,-0.0004664572827579,0.8004151736340792,8.0000000000000000,0.0000000000000000,0.0999681777274896
0.8976486323172979,0.5287854458843041,1.4288142778418553,0.5711857221581446,0.0018940503502565,-0.0004693482021444,0.9003939932458981,8.0000000000000000,0.0000000000000000,0.1124641999433648
0.9976166262604574,0.5289771357788413,1.4289992520679902,0.5710007479320098,0.0019411147314978,-0.0004722389105337,1.0003724641280656,8.0000000000000000,0.0000000000000000,0.1249602221592262
1.0975846110426515,0.5291735450454075,1.4291901806467293,0.5708098193532707,0.0019884680769320,-0.0004751297407498,1.1003505867304326,8.0000000000000000,0.0000000000000000,0.1374562443750736
1.1975525863829477,0.5293747025769695,1.4293869469420923,0.5706130530579074,0.0020361104402309,-0.0004780206210530,1.2003283614924436,8.0000000000000000,0.0000000000000000,0.1499522665909070
1.2975205519963000,0.5295806372647277,1.4295894225322778,0.5704105774677224,0.0020840417777368,-0.0004809112618059,1.3003057888423859,8.0000000000000000,0.0000000000000000,0.1624482888067263
1.3974885075935364,0.5297913779928819,1.4297975043535627,0.5702024956464371,0.0021322620852127,-0.0004838020016556,1.4002828691966522,8.0000000000000000,0.0000000000000000,0.1749443110225316
1.4974564528813035,0.5300069536517462,1.4300111200710692,0.5699888799289304,0.0021807713867086,-0.0004866930107790,1.5002596029590325,8.0000000000000000,0.0000000000000000,0.1874403332383226
1.5974243875620602,0.5302273931302889,1.4302467047186467,0.5697532952813534,0.0022295697120120,-0.0004895833746175,1.6002359905199817,8.0000000000000000,0.0000000000000000,0.1999363554540992
1.6973923113340328,0.5304527253247386,1.4336688617537794,0.5663311382462204,0.0022786569023197,-0.0004924685195786,1.7002120322558925,8.0000000000000000,0.0000000000000000,0.2124323776698615
1.7973602238912929,0.5306829790922714,1.4356452761293237,0.5643547238706766,0.0023280320729915,-0.0004953368202259,1.8001877285283132,8.0000000000000000,0.0000000000000000,0.2249283998856093
1.8973281249239764,0.5309181831522017,1.4352752077304243,0.5647247922695755,0.0023776927408767,-0.0004981795705009,1.9001630796830700,8.0000000000000000,0.0000000000000000,0.2374244221013424
1.9972960141188174,0.5311583658651913,1.4311947816075499,0.5688052183924499,0.0024276362806779,-0.0005010048940646,2.0001380860492701,8.0000000000000000,0.0000000000000000,0.2499204443170615
2.0972638911587156,0.5314035554256192,1.4314060511627495,0.5685939488372505,0.0024778618334593,-0.0005038254024066,2.1001127479388559,8.0000000000000000,0.0000000000000000,0.2624164665327662
2.1972317557223482,0.5316537800223700,1.4316570889053069,0.5683429110946930,0.0025283692954188,-0.0005066452911103,2.2000839968979848,8.0000000000000000,0.0000000000000000,0.2749124887484565
2.2971996074841723,0.5319090678290227,1.4319135101829248,0.5680864898170748,0.0025791586464703,-0.0005094654498673,2.3000581449325126,8.0000000000000000,0.0000000000000000,0.2874085109641322
2.3971674461143366,0.5321694470303988,1.4321752171185893,0.5678247828814107,0.0026302299606933,-0.0005122857093735,2.4000319491930648,8.0000000000000000,0.0000000000000000,0.2999045331797934
2.4971352712786712,0.5324349458148405,1.4324422137186259,0.5675577862813739,0.0026815831841518,-0.0005151054749099,2.5000054099204805,8.0000000000000000,0.0000000000000000,0.3124005553954399
2.5971030826387165,0.5327055923563363,1.4327145073783989,0.5672854926216011,0.0027332182720192,-0.0005179252777682,2.5999785273352392,8.0000000000000000,0.0000000000000000,0.3248965776110717
2.6970708798516427,0.5329814148342158,1.4329921082222743,0.5670078917777255,0.0027851352765842,-0.0005207456093665,2.6999513016367604,8.0000000000000000,0.0000000000000000,0.3373925998266885
2.7970386625702326,0.5332624414328707,1.4332750287409717,0.5667249712590281,0.0028373342512724,-0.0005235658487492,2.7999237330026814,8.0000000000000000,0.0000000000000000,0.3498886220422904
2.8970064304428473,0.5335487003422602,1.4335632834869985,0.5664367165130015,0.0028898151242209,-0.0005263857526111,2.8998958215881441,8.0000000000000000,0.0000000000000000,0.3623846442578773
2.9969741831134833,0.5338402197323547,1.4338568887862746,0.5661431112137250,0.0029425779002099,-0.0005292056536734,2.9998675675250368,8.0000000000000000,0.0000000000000000,0.3748806664734492
3.0969419202216244,0.5341370277940148,1.4341558625554351,0.5658441374445651,0.0029956225738994,-0.0005320255325652,3.0998389709213234,8.0000000000000000,0.0000000000000000,0.3873766886890059
3.1969096414023483,0.5344391526960880,1.4344602240667204,0.5655397759332799,0.0030489491461967,-0.0005348456212960,3.1998100318602734,8.0000000000000000,0.0000000000000000,0.3998727109045472
3.2968773462861707,0.5347466226295596,1.4347699938240270,0.5652300061759731,0.0031025576581489,-0.0005376658102763,3.2997807503997927,8.0000000000000000,0.0000000000000000,0.4123687331200733
3.3968450344991274,0.5350594657714265,1.4350851933874369,0.5649148066125634,0.0031564480887525,-0.0005404860065831,3.3997511265716587,8.0000000000000000,0.0000000000000000,0.4248647553355840
3.4968127056626805,0.5353777103084159,1.4354058452684288,0.5645941547315709,0.0032106204604758,-0.0005433060512751,3.4997211603808300,8.0000000000000000,0.0000000000000000,0.4373607775510793
3.5967803593937395,0.5357013844219569,1.4357319728105444,0.5642680271894557,0.0032650747205372,-0.0005461258316233,3.5996908518047035,8.0000000000000000,0.0000000000000000,0.4498567997665589
3.6967479953046394,0.5360305162881631,1.4360636000920881,0.5639363999079119,0.0033198108688663,-0.0005489459246232,3.6996602007924015,8.0000000000000000,0.0000000000000000,0.4623528219820229
3.7967156130030837,0.5363651340883875,1.4364007518584865,0.5635992481415134,0.0033748289680440,-0.0005517662815605,3.7996292072640605,8.0000000000000000,0.0000000000000000,0.4748488441974711
3.8966832120921100,0.5367052660111923,1.4367434534494252,0.5632565465505746,0.0034301290082601,-0.0005545863686288,3.8995978711101018,8.0000000000000000,0.0000000000000000,0.4873448664129036
3.9966507921701235,0.5370509402359047,1.4370917307211857,0.5629082692788140,0.0034857109453681,-0.0005574061382322,3.9995661921905090,8.0000000000000000,0.0000000000000000,0.4998408886283201
4.0966183528308440,0.5374021849421949,1.4374456100278326,0.5625543899721673,0.0035415747600418,-0.0005602263507135,4.0995341703341142,8.0000000000000000,0.0000000000000000,0.5123369108437209
4.1965858936632880,0.5377590283054594,1.4378051201578432,0.5621948798421569,0.0035977205601547,-0.0005630466393493,4.1995021164280368,8.0000000000000000,0.0000000000000000,0.5248329330591053
4.2965534142516537,0.5381214985268679,1.4381702956223184,0.5618297043776816,0.0036541482530594,-0.0005658662819450,4.2994695807264964,8.0000000000000000,0.0000000000000000,0.5373289552744737
4.3965209141755341,0.5384896237632241,1.4385411510155519,0.5614588489844481,0.0037108578022365,-0.0005686864592577,4.3994367013640492,8.0000000000000000,0.0000000000000000,0.5498249774898257
4.4964883930096082,0.5388634322083257,1.4389177142128478,0.5610822857871522,0.0037678493511146,-0.0005715069179483,4.4994034780449947,8.0000000000000000,0.0000000000000000,0.5623209997051616
4.5964558503237747,0.5392429520475811,1.4393000137545175,0.5606999862454826,0.0038251228125228,-0.0005743269862324,4.5993699104390462,8.0000000000000000,0.0000000000000000,0.5748170219204808
4.6964232856831432,0.5396282114572865,1.4396880779806855,0.5603119220193145,0.0038826781955756,-0.0005771469845303,4.6993359981806258,8.0000000000000000,0.0000000000000000,0.5873130441357839
4.7963906986479197,0.5400192386245981,1.4400819354638461,0.5599180645361544,0.0039405154771657,-0.0005799670984191,4.7993017408681311,8.0000000000000000,0.0000000000000000,0.5998090663510703
4.8963580887734945,0.5404160617211166,1.4404816149736397,0.5595183850263602,0.0039986347035113,-0.0005827872647861,4.8992671380632187,8.0000000000000000,0.0000000000000000,0.6123050885663400
4.9963254556102630,0.5408187089431619,1.4408871454977898,0.5591128545022099,0.0040570358388863,-0.0005856071997633,4.9992321892900931,8.0000000000000000,0.0000000000000000,0.6248011107815932
5.0962927987038178,0.5412272084551134,1.4412985561695284,0.5587014438304714,0.0041157188727536,-0.0005884276690555,5.0991968940347840,8.0000000000000000,0.0000000000000000,0.6372971329968297
5.1962601175946794,0.5416415884511049,1.4417158763182072,0.5582841236817933,0.0041746839224794,-0.0005912481626549,5.1991612517444130,8.0000000000000000,0.0000000000000000,0.6497931552120489
5.2962274118184256,0.5420618771189003,1.4421391354180235,0.5578608645819768,0.0042339308755575,-0.0005940677755550,5.2991252618264966,8.0000000000000000,0.0000000000000000,0.6622891774272514
5.3961946809057011,0.5424881026300571,1.4425683631711268,0.5574316368288731,0.0042934596684101,-0.0005968876581031,5.3990889236482102,8.0000000000000000,0.0000000000000000,0.6747851996424368
5.4961619243821165,0.5429202931595443,1.4430036490929128,0.5569963509070870,0.0043532704185274,-0.0005997083332130,5.4990522365356860,8.0000000000000000,0.0000000000000000,0.6872812218576051
5.5961291417681513,0.5433584769023244,1.4434485363411422,0.5565514636588578,0.0044133631668812,-0.0006025290394745,5.5990151997732696,8.0000000000000000,0.0000000000000000,0.6997772440727562
5.6960963325792662,0.5438026820414718,1.4439070849537290,0.5560929150462709,0.0044737378787281,-0.0006053490416739,5.6989778126028172,8.0000000000000000,0.0000000000000000,0.7122732662878900
5.7960634963258064,0.5442529367649145,1.4443582108260660,0.5556417891739343,0.0045343944480438,-0.0006081685981479,5.7989400742229753,8.0000000000000000,0.0000000000000000,0.7247692885030064
5.8960306325131215,0.5447092692344396,1.4448150979246841,0.5551849020753159,0.0045953328917359,-0.0006109890605280,5.8989019837884848,8.0000000000000000,0.0000000000000000,0.7372653107181054
5.9959977406412834,0.5451717076412649,1.4452780814549471,0.5547219185450529,0.0046565533740204,-0.0006138097666396,5.9988635404094097,8.0000000000000000,0.0000000000000000,0.7497613329331868
6.0959648202051877,0.5456402801799175,1.4457471904970209,0.5542528095029788,0.0047180557794120,-0.0006166297494306,6.0988247431504563,8.0000000000000000,0.0000000000000000,0.7622573551482509
6.1959318706946584,0.5461150150184318,1.4462224518932054,0.5537775481067947,0.0047798400787780,-0.0006194498516353,6.1987855910302629,8.0000000000000000,0.0000000000000000,0.7747533773632970
6.2958988915942173,0.5465959403454154,1.4467038869406579,0.5532961130593418,0.0048419063251262,-0.0006222702422544,6.2987499409882854,8.0000000000000000,0.0000000000000000,0.7872493995783254
6.3958658823831964,0.5470830843394037,1.4471915118024590,0.5528084881975408,0.0049042545231133,-0.0006250906923138,6.3987102500805664,8.0000000000000000,0.0000000000000000,0.7997454217933362
6.4958328425356058,0.5475764751898369,1.4476853667791927,0.5523146332208072,0.0049668846799669,-0.0006279110499999,6.4986702012557220,8.0000000000000000,0.0000000000000000,0.8122414440083282
6.5957997715202499,0.5480761410765960,1.4481854793128484,0.5518145206871514,0.0050297967699906,-0.0006307311861206,6.5986297933518587,8.0000000000000000,0.0000000000000000,0.8247374662233043
6.6957666688005055,0.5485821101838817,1.4486918764913799,0.5513081235086198,0.0050929907745818,-0.0006335513481738,6.6985890251574789,8.0000000000000000,0.0000000000000000,0.8372334884382551
6.7957335338348095,0.5490944106877541,1.4492045854122677,0.5507954145877325,0.0051564667175281,-0.0006362190781033,6.7985478954112430,8.0000000000000000,0.0000000000000000,0.8497295106532148
6.8957003660761593,0.5496130707770671,1.4497231596257076,0.5502768403742927,0.0052201940983190,-0.0006373031371397,6.8985064028008427,8.0000000000000000,0.0000000000000000,0.8622255328682153
6.9956671650012465,0.5501381125296819,1.4499968641982883,0.5500031358017117,0.0052838867840768,-0.0006326778668144,6.9984645459694397,8.0000000000000000,0.0000000000000000,0.8747215550829111
7.0956339303590763,0.5506695069268021,1.4382948673626292,0.5617051326373708,0.0053466894051741,-0.0006193840563292,7.0984223236038044,8.0000000000000000,0.0000000000000000,0.8872175772975704
7.1956006625505822,0.5512071050292485,1.4022272700901186,0.5977727299098815,0.0054077241749155,-0.0006001277732290,7.1983797345758429,8.0000000000000000,0.0000000000000000,0.8997135995126395
7.2955673623008837,0.5517507023194137,1.4017208002868187,0.5982791997131816,0.0054666767649532,-0.0005791185892188,7.2983367778565755,8.0000000000000000,0.0000000000000000,0.9122096217278416
7.3955340304137609,0.5523000870136667,1.4022749476354797,0.5977250523645203,0.0055235110350138,-0.0005579292491890,7.3982934524474864,8.0000000000000000,0.0000000000000000,0.9247056439431385
7.4955006677301315,0.5528550473691269,1.4028413305396588,0.5971586694603412,0.0055782271056326,-0.0005367396405673,7.4982497573665263,8.0000000000000000,0.0000000000000000,0.9372016661585645
7.5954672751260395,0.5534153716266235,1.4034101139395221,0.5965898860604779,0.0056308248025732,-0.0005155496515606,7.5982056916471992,8.0000000000000000,0.0000000000000000,0.9496976883741044
7.6954338535118252,0.5539808480087913,1.4039809009337263,0.5960190990662738,0.0056813042240189,-0.0004943604620118,7.6981612543390110,8.0000000000000000,0.0000000000000000,0.9621937105897563
7.7954004038303299,0.5545512647764356,1.4045533108793180,0.5954466891206822,0.0057296654316270,-0.0004731709467737,7.7981164445071576,8.0000000000000000,0.0000000000000000,0.9746897328055150
7.8953669270559432,0.5551264101648553,1.4051269557479400,0.5948730442520601,0.0057759082986231,-0.0004519808438646,7.8980712612326407,8.0000000000000000,0.0000000000000000,0.9871857550213761
7.9953334241930962,0.5557060724098369,1.4057014563534733,0.5942985436465262,0.0058200328342846,-0.0004307916202093,7.9980257036121376,8.0000000000000000,0.0000000000000000,0.9996817772373346
8.0952998962749234,0.5562900397488526,1.4062773438250882,0.5937226561749110,0.0058620392051287,-0.0004096024883281,8.0979797707579539,8.0000000000000000,0.0000000000000000,1.0121777994533865
8.1952663443617269,0.5568781004512887,1.4068654439230412,0.5931345560769590,0.0059019272629872,-0.0003884125184785,8.1979334617978843,8.0000000000000000,0.0000000000000000,1.0246738216695268
8.2952327695401831,0.5574700427252904,1.4074263413086776,0.5925736586913229,0.0059396969884880,-0.0003672235713382,8.2978867758753907,8.0000000000000000,0.0000000000000000,1.0371698438857511
8.3951991729212931,0.5580656548366564,1.4079999091500521,0.5920000908499478,0.0059753486054797,-0.0003460343733901,8.3978471880141203,8.0000000000000000,0.0000000000000000,1.0496658661020544
8.4951655556394599,0.5586647250385597,1.4085852335833167,0.5914147664166833,0.0060088818399680,-0.0003248445814283,8.4977999253101419,8.0000000000000000,0.0000000000000000,1.0621618883184325
8.5951319188513100,0.5592670415422791,1.4092049601473102,0.5907950398526894,0.0060402968471822,-0.0003036559330297,8.5977522835158542,8.0000000000000000,0.0000000000000000,1.0746579105348808
8.6950982637336551,0.5598723926322710,1.4098569361656941,0.5901430638343063,0.0060695937005328,-0.0002824663515917,8.6977042618416043,8.0000000000000000,0.0000000000000000,1.0871539327513942
8.7950645914829586,0.5604805665347253,1.4104642228522009,0.5895357771477993,0.0060967721400609,-0.0002612766127943,8.7976558595129131,8.0000000000000000,0.0000000000000000,1.0996499549679692
8.8950309033135664,0.5610913514823443,1.4110718795893857,0.5889281204106140,0.0061218323942633,-0.0002400880638121,8.8976070757702281,8.0000000000000000,0.0000000000000000,1.1121459771846005
8.9949972004561882,0.5617045357472082,1.4116940868551640,0.5883059131448359,0.0061447744725305,-0.0002188990246172,8.9975579098687657,8.0000000000000000,0.0000000000000000,1.1246419994012837
9.0949634841570077,0.5623199075640878,1.4123077769832104,0.5876922230167896,0.0061655982674607,-0.0001977101149370,9.0975083610786935,8.0000000000000000,0.0000000000000000,1.1371380216180145
9.1949297556760019,0.5629372551837664,1.4126169769895589,0.5873830230104418,0.0061843039123501,-0.0001765211590603,9.1974584286848913,8.0000000000000000,0.0000000000000000,1.1496340438347872
9.2948960162856586,0.5635563668678261,1.4130886268420229,0.5869113731579770,0.0062008912646663,-0.0001553319501933,9.2974081119869432,8.0000000000000000,0.0000000000000000,1.1621300660515987
9.3948622672698985,0.5641770308386987,1.4140235433444139,0.5859764566555862,0.0062153604163597,-0.0001341431013033,9.3973574102992110,8.0000000000000000,0.0000000000000000,1.1746260882684438
9.4948285099221597,0.5647990353764799,1.4147887895043130,0.5852112104956873,0.0062277113474523,-0.0001129540686896,9.4973063229504717,8.0000000000000000,0.0000000000000000,1.1871221104853185
9.5947947455447729,0.5654221686997206,1.4154088226604298,0.5845911773395703,0.0062379440411890,-0.0000917653977563,9.5972548492842495,8.0000000000000000,0.0000000000000000,1.1996181327022171
9.6947609754468900,0.5660462190852638,1.4160211108976553,0.5839788891023450,0.0062460585866380,-0.0000705767906302,9.6972029886583737,8.0000000000000000,0.0000000000000000,1.2121141549191359
9.7947272009437363,0.5666709747695488,1.4166393656798293,0.5833606343201709,0.0062520549074885,-0.0000493882560315,9.7971507404452396,8.0000000000000000,0.0000000000000000,1.2246101771360702
9.8946934233548642,0.5672962240142257,1.4172739604238977,0.5827260395761026,0.0062559330945520,-0.0000281997295489,9.8970981040315316,8.0000000000000000,0.0000000000000000,1.2371061993530157
9.9946596440030078,0.5679217550739378,1.4179091656521576,0.5820908343478424,0.0062576930586398,-0.0000070102907612,9.9970450788182852,8.0000000000000000,0.0000000000000000,1.2496022215699678
10.0946258642127518,0.5685473561925343,1.4185384711852280,0.5814615288147726,0.0062573347065376,0.0000141782435875,10.0969916642208215,8.0000000000000000,0.0000000000000000,1.2620982437869217
10.1945920853091838,0.5691728156060355,1.4190469468595459,0.5809530531404542,0.0062548583122899,0.0000353659602466,10.1969378596687115,8.0000000000000000,0.0000000000000000,1.2745942660038732
10.2945583086160930,0.5697979216130784,1.4196171048026931,0.5803828951973068,0.0062502637653381,0.0000565546908198,10.2968836646054367,8.0000000000000000,0.0000000000000000,1.2870902882208171
