# x_m,y_m,w_tr_right_m,w_tr_left_m,psi,kappa,s,velocity,acceleration,time
-0.0003513887572399,-0.2988324666721566,0.6011914742857940,1.3988085257142060,0.0022663229075726,0.0001979846908503,0.0000000000000000,8.0000000000000000,0.0000000000000000,0.0000000000000000
0.1000212876409345,-0.2986049893868831,0.6014391210084258,1.3985608789915742,0.0022464506032318,0.0002976111526939,0.0999187252957386,8.0000000000000000,0.0000000000000000,0.0125466167708470
0.2003945663281010,-0.2983815000416514,0.6016302287643622,1.3983697712356378,0.0022065785217180,0.0003985071068418,0.2002795844835818,8.0000000000000000,0.0000000000000000,0.0250933077077902
0.3007684272590008,-0.2981620243413747,0.6019132821566368,1.3980867178433631,0.0021664512466419,0.0004010473853836,0.3006413372321501,8.0000000000000000,0.0000000000000000,0.0376400703179709
0.4011428503883678,-0.2979465879909661,0.6020841985388782,1.3979158014611215,0.0021260687583224,0.0004035879131493,0.4010039631697075,8.0000000000000000,0.0000000000000000,0.0501869021089141
0.5015178156709434,-0.2977352166953388,0.6023109334105206,1.3976890665894794,0.0020854310367777,0.0004061286946426,0.5013674419581796,8.0000000000000000,0.0000000000000000,0.0627338005885328
0.6018933030614607,-0.2975279361594055,0.6025336886307242,1.3974663113692760,0.0020445380617231,0.0004086697343658,0.6017317532928893,8.0000000000000000,0.0000000000000000,0.0752807632651284
0.7022692925146620,-0.2973247720880797,0.6026996798995656,1.3973003201004344,0.0020033898125735,0.0004112110368132,0.7020968769023224,8.0000000000000000,0.0000000000000000,0.0878277876473954
0.8026457639852811,-0.2971257501862742,0.6029011092511424,1.3970988907488580,0.0019619862684426,0.0004137526064857,0.8024627925478555,8.0000000000000000,0.0000000000000000,0.1003748712444219
0.9030226974280595,-0.2969308961589024,0.6030988054609463,1.3969011945390537,0.0019203274081421,0.0004162944478696,0.9028294800235244,8.0000000000000000,0.0000000000000000,0.1129220115656938
1.0034000727977319,-0.2967402357108772,0.6032820918992422,1.3967179081007579,0.0018784132101854,0.0004188365654611,1.0031969191557510,8.0000000000000000,0.0000000000000000,0.1254692061210956
1.1037778700490373,-0.2965537945471117,0.6034624689512615,1.3965375310487385,0.0018362436527823,0.0004213789637626,1.1035650898031046,8.0000000000000000,0.0000000000000000,0.1380164524209140
1.2041560691367146,-0.2963715983725190,0.6036397231313456,1.3963602768686543,0.0017938187138427,0.0004239216472600,1.2039339718560438,8.0000000000000000,0.0000000000000000,0.1505637479758405
1.3045346500154988,-0.2961936728920122,0.6038136723679111,1.3961863276320892,0.0017511383709758,0.0004264646204490,1.3043035452366578,8.0000000000000000,0.0000000000000000,0.1631110902969727
1.4049135926401295,-0.2960200438105044,0.6039841600774933,1.3960158399225067,0.0017082026014896,0.0004290078878283,1.4046737898984247,8.0000000000000000,0.0000000000000000,0.1756584768958183
1.5052928769653422,-0.2958507368329085,0.6041510504906672,1.3958489495093325,0.0016650113823906,0.0004315514538912,1.5050446858259470,8.0000000000000000,0.0000000000000000,0.1882059052842960
1.6056724829458782,-0.2956857776641379,0.6045118835430942,1.3954881164569060,0.0016215646903848,0.0004340953231163,1.6054162130347041,8.0000000000000000,0.0000000000000000,0.2007533729747399
1.7060523905364724,-0.2955251920091057,0.6078025106594710,1.3921974893405289,0.0015778625018799,0.0004366394999953,1.7057883515707946,8.0000000000000000,0.0000000000000000,0.2133008774799000
1.8064325796918641,-0.2953690055727248,0.6095657080165083,1.3904342919834918,0.0015339047929803,0.0004391839890279,1.8061610815106806,8.0000000000000000,0.0000000000000000,0.2258484163129461
1.9068130303667901,-0.2952172440599083,0.6088712844305459,1.3911287155694538,0.0014896915394909,0.0004417287947054,1.9065343829609411,8.0000000000000000,0.0000000000000000,0.2383959869874694
2.0071937225159884,-0.2950699331755692,0.6049278374253764,1.3950721625746236,0.0014452227169144,0.0004442739215161,2.0069082360580053,8.0000000000000000,0.0000000000000000,0.2509435870174856
2.1075746360941965,-0.2949270986246209,0.6050710737474645,1.3949289262525353,0.0014004983004547,0.0004468193739415,2.1072826209679079,8.0000000000000000,0.0000000000000000,0.2634912139174370
2.2079557510561507,-0.2947887661119762,0.6052101186798582,1.3947898813201416,0.0013555182650153,0.0004493651564729,2.2076575178860276,8.0000000000000000,0.0000000000000000,0.2760388652021952
2.3083370473565923,-0.2946549613425485,0.6053449140901225,1.3946550859098774,0.0013102825851985,0.0004519112736014,2.3080329070368393,8.0000000000000000,0.0000000000000000,0.2885865383870638
2.4087185049502562,-0.2945257100212505,0.6054753964545734,1.3945246035454266,0.0012647912353061,0.0004544577298138,2.4084087686736484,8.0000000000000000,0.0000000000000000,0.3011342309877802
2.5091001037918832,-0.2944010378529957,0.6056015169046643,1.3943984830953355,0.0012190441893398,0.0004570045295946,2.5087875522552139,8.0000000000000000,0.0000000000000000,0.3136819405205189
2.6094818238362052,-0.2942809705426968,0.6057232297798254,1.3942767702201746,0.0011730414210014,0.0004595516774347,2.6091641332805815,8.0000000000000000,0.0000000000000000,0.3262296645018927
2.7098636450379652,-0.2941655337952672,0.6058404921009076,1.3941595078990925,0.0011267829036909,0.0004620991778119,2.7095411275284826,8.0000000000000000,0.0000000000000000,0.3387774004489575
2.8102455473518995,-0.2940547533156198,0.6059532632109177,1.3940467367890823,0.0010802686105114,0.0004646470352171,2.8099185153578325,8.0000000000000000,0.0000000000000000,0.3513251458792125
2.9106275107327439,-0.2939486548086677,0.6060615044699111,1.3939384955300889,0.0010334985142613,0.0004671952541433,2.9102962771551897,8.0000000000000000,0.0000000000000000,0.3638728983106033
3.0110095151352403,-0.2938472639793241,0.6061651789949918,1.3938348210050082,0.0009864725874416,0.0004697438390659,3.0106743933345097,8.0000000000000000,0.0000000000000000,0.3764206552615258
3.1113915405141186,-0.2937506065325019,0.6062642514382743,1.3937357485617257,0.0009391908022525,0.0004722927944724,3.1110528443368688,8.0000000000000000,0.0000000000000000,0.3889684142508258
3.2117735668241276,-0.2936587081731146,0.6063586877966497,1.3936413122033504,0.0008916531305940,0.0004748421248403,3.2114316106302403,8.0000000000000000,0.0000000000000000,0.4015161727978058
3.3121555740199966,-0.2935715946060748,0.6064484552485387,1.3935515447514613,0.0008438595440676,0.0004773918346569,3.3118106727091954,8.0000000000000000,0.0000000000000000,0.4140639284222224
3.4125375420564659,-0.2934892915362960,0.6065335220135393,1.3934664779864607,0.0007958100139724,0.0004799419284131,3.4121900110946841,8.0000000000000000,0.0000000000000000,0.4266116786442928
3.5129194508882735,-0.2934118246686910,0.6066138572315474,1.3933861427684526,0.0007475045113083,0.0004824924105852,3.5125696063337544,8.0000000000000000,0.0000000000000000,0.4391594209846957
3.6133012804701581,-0.2933392197081731,0.6066894308586619,1.3933105691413379,0.0006989430067759,0.0004850432856440,3.6129494389993115,8.0000000000000000,0.0000000000000000,0.4517071529645739
3.7136830107568528,-0.2932715023596553,0.6067602135774235,1.3932397864225765,0.0006501254707774,0.0004875945580925,3.7133294896898437,8.0000000000000000,0.0000000000000000,0.4642548721055361
3.8140646217030993,-0.2932086983280504,0.6068261767195280,1.3931738232804722,0.0006010518734094,0.0004901462324135,3.8137097390291834,8.0000000000000000,0.0000000000000000,0.4768025759296614
3.9144460932636362,-0.2931508333182720,0.6068872921993604,1.3931127078006393,0.0005517221844744,0.0004926983130670,3.9140901676662399,8.0000000000000000,0.0000000000000000,0.4893502619595001
4.0148274053931976,-0.2930979330352328,0.6069435324570002,1.3930564675429997,0.0005021363734736,0.0004952508045502,4.0144707562747373,8.0000000000000000,0.0000000000000000,0.5018979277180762
4.1152085380465255,-0.2930500231838463,0.6069948704359763,1.3930051295640236,0.0004522944096066,0.0004978037113354,4.1148514855529719,8.0000000000000000,0.0000000000000000,0.5144455707288913
4.2155894711783546,-0.2930071294690252,0.6070412796337867,1.3929587203662135,0.0004021962617768,0.0005003570379054,4.2152323362235391,8.0000000000000000,0.0000000000000000,0.5269931885159254
4.3159701847434224,-0.2929692775956828,0.6070827333696091,1.3929172666303908,0.0003518418985839,0.0005029107887447,4.3156132890330836,8.0000000000000000,0.0000000000000000,0.5395407786036402
4.4163506586964694,-0.2929364932687321,0.6071192035417617,1.3928807964582381,0.0003012312883313,0.0005054649683297,4.4159943247520443,8.0000000000000000,0.0000000000000000,0.5520883385169825
4.5167308729922286,-0.2929088021930861,0.6071506649292997,1.3928493350707003,0.0002503643990197,0.0005080195811460,4.5163754241743881,8.0000000000000000,0.0000000000000000,0.5646358657813844
4.6171108075854432,-0.2928862300736582,0.6071770927553236,1.3928229072446765,0.0001992411983522,0.0005105746316613,4.6167565681173617,8.0000000000000000,0.0000000000000000,0.5771833579227688
4.7174904424308473,-0.2928688026153612,0.6071984621625650,1.3928015378374350,0.0001478616537329,0.0005131301243590,4.7171377374212256,8.0000000000000000,0.0000000000000000,0.5897308124675490
4.8178697574831801,-0.2928565455231083,0.6072147486023949,1.3927852513976051,0.0000962257322648,0.0005156860637281,4.8175189129490033,8.0000000000000000,0.0000000000000000,0.6022782269426334
4.9182487326971769,-0.2928494845018125,0.6072259278314224,1.3927740721685777,0.0000443334007507,0.0005182424542411,4.9179000755862088,8.0000000000000000,0.0000000000000000,0.6148255988754266
5.0186273480275787,-0.2928476452563871,0.6072319759127007,1.3927680240872991,-0.0000078153743039,0.0005207993003661,5.0182795261503150,8.0000000000000000,0.0000000000000000,0.6273729257938332
5.1190055834291242,-0.2928510534917451,0.6072328692217246,1.3927671307782754,-0.0000602206266931,0.0005233566065889,5.1186604325804588,8.0000000000000000,0.0000000000000000,0.6399202052262590
5.2193834188565464,-0.2928597349127995,0.6072285844574653,1.3927714155425346,-0.0001128823905119,0.0005259143773924,5.2190412685633261,8.0000000000000000,0.0000000000000000,0.6524674347016139
5.3197608342645841,-0.2928737152244634,0.6072190986588145,1.3927809013411854,-0.0001658007001539,0.0005284726172471,5.3194220150669116,8.0000000000000000,0.0000000000000000,0.6650146117493151
5.4201378096079766,-0.2928930201316500,0.6072043892270307,1.3927956107729693,-0.0002189755903117,0.0005310313306359,5.4198026530805121,8.0000000000000000,0.0000000000000000,0.6775617338992890
5.5205143248414617,-0.2929176753392723,0.6071818204824367,1.3928181795175631,-0.0002724070959785,0.0005335905220374,5.5201831636144618,8.0000000000000000,0.0000000000000000,0.6901087986819741
5.6208903599197777,-0.2929477065522434,0.6071492892916858,1.3928507107083143,-0.0003260952524458,0.0005361501959192,5.6205635276998791,8.0000000000000000,0.0000000000000000,0.7026558036283230
5.7212658947976616,-0.2929831394754764,0.6071258667794847,1.3928741332205152,-0.0003800400953033,0.0005387103567680,5.7209437263884082,8.0000000000000000,0.0000000000000000,0.7152027462698053
5.8216409094298500,-0.2930239998138845,0.6070859107807405,1.3929140892192595,-0.0004342416604430,0.0005412710090604,5.8213237407519571,8.0000000000000000,0.0000000000000000,0.7277496241384097
5.9220153837710825,-0.2930703132723807,0.6070405453172406,1.3929594546827593,-0.0004886999840532,0.0005438321572623,5.9217035518824437,8.0000000000000000,0.0000000000000000,0.7402964347666475
6.0223892977760949,-0.2931221055558781,0.6069897489798927,1.3930102510201074,-0.0005434151026218,0.0005463938058541,6.0220831408915378,8.0000000000000000,0.0000000000000000,0.7528431756875540
6.1227626313996257,-0.2931794023692898,0.6069335012687678,1.3930664987312322,-0.0005983870529362,0.0005489559593196,6.1224624889104007,8.0000000000000000,0.0000000000000000,0.7653898444346915
6.2231353645964127,-0.2932422294175288,0.6068717812990808,1.3931282187009191,-0.0006536158720842,0.0005515186221406,6.2228415770894241,8.0000000000000000,0.0000000000000000,0.7779364385421521
6.3235074773211917,-0.2933106124055082,0.6068045636494780,1.3931954363505217,-0.0007091015974525,0.0005540817987801,6.3232203865979741,8.0000000000000000,0.0000000000000000,0.7904829555445596
6.4238789495287065,-0.2933845770381412,0.6067318270850895,1.3932681729149103,-0.0007648442667243,0.0005566454937114,6.4235988986241424,8.0000000000000000,0.0000000000000000,0.8030293929770733
6.5242497611736869,-0.2934641490203408,0.6066535680406567,1.3933464319593434,-0.0008208439178838,0.0005592097114235,6.5239770943744633,8.0000000000000000,0.0000000000000000,0.8155757483753880
6.6246198922108768,-0.2935493540570203,0.6065697739444420,1.3934302260555580,-0.0008771005892150,0.0005617744563866,6.6243549550736827,8.0000000000000000,0.0000000000000000,0.8281220192757398
6.7249893225950084,-0.2936402178530925,0.6064804348019707,1.3935195651980292,-0.0009336143192988,0.0005643397330722,6.7247324619644795,8.0000000000000000,0.0000000000000000,0.8406682032149057
6.8253580322808265,-0.2937367661134707,0.6063855443649195,1.3936144556350805,-0.0009903851470163,0.0005669055459611,6.8251095963072261,8.0000000000000000,0.0000000000000000,0.8532142977302086
6.9257260012230617,-0.2938390245430678,0.6062851077867329,1.3937148922132672,-0.0010474131115474,0.0005694718995329,6.9254863393797041,8.0000000000000000,0.0000000000000000,0.8657603003595175
7.0260932093764561,-0.2939470188467970,0.6028764036370851,1.3971235963629149,-0.0011046982523717,0.0005720387982542,7.0258626724768725,8.0000000000000000,0.0000000000000000,0.8783062086412520
7.1264596366957464,-0.2940607747295715,0.5833532246693938,1.4166467753306060,-0.0011622406092651,0.0005746062466040,7.1262385769105965,8.0000000000000000,0.0000000000000000,0.8908520201143837
7.2268252631356686,-0.2941803178963042,0.5557986990501406,1.4442013009498593,-0.0012200402223055,0.0005771742490627,7.2266140340093843,8.0000000000000000,0.0000000000000000,0.9033977323184389
7.3271900686509630,-0.2943056740519084,0.5556804233002020,1.4443195766997978,-0.0012780971318676,0.0005797428100998,7.3269890251181469,8.0000000000000000,0.0000000000000000,0.9159433427935019
7.4275540331963645,-0.2944368689012969,0.5555654614678854,1.4444345385321147,-0.0013364113786256,0.0005823119341972,7.4273635315979156,8.0000000000000000,0.0000000000000000,0.9284888490802161
7.5279171367266144,-0.2945739281493830,0.5554420781353974,1.4445579218646027,-0.0013949830035531,0.0005848816258248,7.5277314994393949,8.0000000000000000,0.0000000000000000,0.9410342487197884
7.6282793591964468,-0.2947168775010798,0.5553102298111608,1.4446897701888390,-0.0014538120479208,0.0005874518894594,7.6281047978131591,8.0000000000000000,0.0000000000000000,0.9535795392539896
7.7286406805606029,-0.2948657426613004,0.5551698303095288,1.4448301696904713,-0.0015128985532999,0.0005900227295770,7.7284775552932929,8.0000000000000000,0.0000000000000000,0.9661247182251593
7.8290010807738177,-0.2950205493349578,0.5550208093906307,1.4449791906093694,-0.0015722425615587,0.0005925941506516,7.8288497533000676,8.0000000000000000,0.0000000000000000,0.9786697831762061
7.9293605397908298,-0.2951813232269651,0.5548631265467441,1.4451368734532559,-0.0016318441148655,0.0005951661571664,7.9292213732686880,8.0000000000000000,0.0000000000000000,0.9912147316506119
8.0297190375663767,-0.2953480900422353,0.5546969742077643,1.4453030257922357,-0.0016917032556873,0.0005977387535924,8.0295923966490328,8.0000000000000000,0.0000000000000000,1.0037595611924335
8.1300765540551971,-0.2955208754856817,0.5545272137198317,1.4454727862801684,-0.0017518200267890,0.0006003119444024,8.1299628049054000,8.0000000000000000,0.0000000000000000,1.0163042693463058
8.2304330692120260,-0.2956997052622173,0.5543486544433447,1.4456513455566555,-0.0018121944712342,0.0006028857340735,8.2303325795162401,8.0000000000000000,0.0000000000000000,1.0288488536574436
8.3307885629916036,-0.2958846050767552,0.5541470524614209,1.4458529475385791,-0.0018728266323851,0.0006054601270844,8.3307017019739131,8.0000000000000000,0.0000000000000000,1.0413933116716452
8.4311430153486704,-0.2960756006342085,0.5539521503451863,1.4460478496548137,-0.0019337165539033,0.0006080351279097,8.4310701537844253,8.0000000000000000,0.0000000000000000,1.0539376409352941
8.5314964062379559,-0.2962727176394903,0.5537713800815535,1.4462286199184464,-0.0019948642797478,0.0006106107410275,8.5314379164671497,8.0000000000000000,0.0000000000000000,1.0664818389953608
8.6318487156142041,-0.2964759817975136,0.5536224681540514,1.4463775318459486,-0.0020562698541777,0.0006131869709095,8.6318049715546117,8.0000000000000000,0.0000000000000000,1.0790259033994076
8.7321999234321535,-0.2966854188131916,0.5534790459309714,1.4465209540690289,-0.0021179333217483,0.0006157638220313,8.7321713005921957,8.0000000000000000,0.0000000000000000,1.0915698316955900
8.8325500096465390,-0.2969010543914373,0.5533064555200993,1.4466935444799010,-0.0021798547273153,0.0006183412988805,8.8325368851379018,8.0000000000000000,0.0000000000000000,1.1041136214326579
8.9328989542120958,-0.2971229142371638,0.5531399657319095,1.4468600342680906,-0.0022420341160334,0.0006209194059257,8.9329017067620864,8.0000000000000000,0.0000000000000000,1.1166572701599597
9.0332467370835676,-0.2973510240552843,0.5529938687310804,1.4470061312689195,-0.0023044715333538,0.0006234981476386,9.0332657470472100,8.0000000000000000,0.0000000000000000,1.1292007754274460
9.1335933382156913,-0.2975854095507119,0.5525686238716266,1.4474313761283732,-0.0023671670250269,0.0006260775284993,9.1336289875875742,8.0000000000000000,0.0000000000000000,1.1417441347856694
9.2339387375632018,-0.2978260964283595,0.5517711282268807,1.4482288717731191,-0.0024301206371016,0.0006286575529881,9.2339914099890628,8.0000000000000000,0.0000000000000000,1.1542873457857885
9.3342829150808342,-0.2980731103931403,0.5515171226109813,1.4484828773890188,-0.0024933324159258,0.0006312382255857,9.3343529958688904,8.0000000000000000,0.0000000000000000,1.1668304059795700
9.4346258507233287,-0.2983264771499674,0.5515580542978926,1.4484419457021074,-0.0025568024081457,0.0006338195507653,9.4347137268553496,8.0000000000000000,0.0000000000000000,1.1793733129193926
9.5349675244454275,-0.2985862224037539,0.5513869483553329,1.4486130516446671,-0.0026205306607054,0.0006364015329983,9.5350735845875523,8.0000000000000000,0.0000000000000000,1.1919160641582487
9.6353079162018638,-0.2988523718594128,0.5511112917270805,1.4488887082729194,-0.0026845172208467,0.0006389841767698,9.6354325507151550,8.0000000000000000,0.0000000000000000,1.2044586572497458
9.7356470059473779,-0.2991249512218573,0.5508281538655244,1.4491718461344758,-0.0027487621361117,0.0006415674865574,9.7357906068981386,8.0000000000000000,0.0000000000000000,1.2170010897481109
9.8359847736367030,-0.2994039861960006,0.5505479084434731,1.4494520915565270,-0.0028132654543389,0.0006441514668359,9.8361477348065094,8.0000000000000000,0.0000000000000000,1.2295433592081919
9.9363211992245777,-0.2996895024867555,0.5502712841634575,1.4497287158365426,-0.0028780272236664,0.0006467361220846,9.9365039161200848,8.0000000000000000,0.0000000000000000,1.2420854631854605
10.0366562626657476,-0.2999815257990354,0.5499869184619723,1.4500130815380279,-0.0029430474925294,0.0006493214567779,10.0368484751046001,8.0000000000000000,0.0000000000000000,1.2546273992360162
10.1369899439149425,-0.3002800818377531,0.5496422498781949,1.4503577501218052,-0.0030083263096619,0.0006519074754028,10.1372025137624924,8.0000000000000000,0.0000000000000000,1.2671691649165853
10.2373222229268990,-0.3005851963078218,0.5492393564590617,1.4507606435409381,-0.0030738637240972,0.0006544941824387,10.2375555504385307,8.0000000000000000,0.0000000000000000,1.2797107577845268
