# x_m,y_m,w_tr_right_m,w_tr_left_m,psi,kappa,s,velocity,acceleration,time
0.0463772518020837,-0.2982963899484038,0.6016719134318894,1.3983280865681107,0.0021793637974026,-0.0001972484529033,0.0001247026781476,8.0000000000000000,0.0000000000000000,0.0000000000000000
0.1467162973950874,-0.2980777143187632,0.6018674758224263,1.3981325241775737,0.0021595720288918,-0.0002966946729587,0.1004530987298946,8.0000000000000000,0.0000000000000000,0.0125424104849967
0.2470556916829290,-0.2978630097291094,0.6020884615045875,1.3979115384954124,0.0021198234344599,-0.0003977856419013,0.2007705694506587,8.0000000000000000,0.0000000000000000,0.0250848634847789
0.3473954152554876,-0.2976523093847086,0.6023108933051196,1.3976891066948802,0.0020797445778034,-0.0004010759370537,0.3010877122369237,8.0000000000000000,0.0000000000000000,0.0376273565840224
0.4477354487026458,-0.2974456464908269,0.6025260067678113,1.3974739932321887,0.0020393354387804,-0.0004043664922470,0.4014045280563235,8.0000000000000000,0.0000000000000000,0.0501698873678997
0.5480757726142852,-0.2972430542527306,0.6023863416681523,1.3976136583318479,0.0019985959968747,-0.0004076573131371,0.5017210177356448,8.0000000000000000,0.0000000000000000,0.0627124534220832
0.6484163675802840,-0.2970445658756852,0.6028749438112219,1.3971250561887780,0.0019575262311871,-0.0004109484053883,0.6020371819635533,8.0000000000000000,0.0000000000000000,0.0752550523327497
0.7487572141905274,-0.2968502145649572,0.6028553799219797,1.3971446200780202,0.0019161261204419,-0.0004142397746369,0.7023530212935911,8.0000000000000000,0.0000000000000000,0.0877976816865851
0.8490982930348927,-0.2966600335258124,0.6026758515345669,1.3973241484654331,0.0018743956429865,-0.0004175314265298,0.8026685361473923,8.0000000000000000,0.0000000000000000,0.1003403390707872
0.9494395847032624,-0.2964740559635171,0.6037115079288482,1.3962884920711518,0.0018323347767895,-0.0004208233666980,0.9029837268181776,8.0000000000000000,0.0000000000000000,0.1128830220730714
1.0497810697855170,-0.2962923150833373,0.6039691440846267,1.3960308559153736,0.0017899434994453,-0.0004241156007889,1.0032985934744563,8.0000000000000000,0.0000000000000000,0.1254257282816737
1.1501227288715401,-0.2961148440905387,0.6046979629202003,1.3953020370797999,0.0017472217881664,-0.0004274081344635,1.1036131361639727,8.0000000000000000,0.0000000000000000,0.1379684552853556
1.2504645425512095,-0.2959416761903879,0.6049489552284056,1.3950510447715940,0.0017041696197886,-0.0004307009733385,1.2039273548178551,8.0000000000000000,0.0000000000000000,0.1505112006734070
1.3508064914144076,-0.2957728445881506,0.6043210242604180,1.3956789757395818,0.0016607869707741,-0.0004339941230501,1.3042412492550108,8.0000000000000000,0.0000000000000000,0.1630539620356521
1.4511485560510184,-0.2956083824890929,0.6045260749075908,1.3954739250924091,0.0016170738172046,-0.0004372875892493,1.4045548191866928,8.0000000000000000,0.0000000000000000,0.1755967369624525
1.5514907170509178,-0.2954483230984811,0.6047219678072785,1.3952780321927216,0.0015730301347852,-0.0004405813775606,1.5048680642212828,8.0000000000000000,0.0000000000000000,0.1881395230447105
1.6518329550039910,-0.2952926996215809,0.6047614548692536,1.3952385451307463,0.0015286558988457,-0.0004438754936255,1.6051809838692745,8.0000000000000000,0.0000000000000000,0.2006823178738754
1.7521752505001158,-0.2951415452636585,0.6049783875443144,1.3950216124556856,0.0014839510843359,-0.0004471699430765,1.7054935775484215,8.0000000000000000,0.0000000000000000,0.2132251190419456
1.8525175841291761,-0.2949948932299801,0.6050534286505496,1.3949465713494507,0.0014389156658319,-0.0004504647315302,1.8058058445890866,8.0000000000000000,0.0000000000000000,0.2257679241414742
1.9528599364810502,-0.2948527767258116,0.6053088730556664,1.3946911269443336,0.0013935496175330,-0.0004537598646293,1.9061177842397430,8.0000000000000000,0.0000000000000000,0.2383107307655718
2.0532022881456236,-0.2947152289564191,0.6055515311451749,1.3944484688548251,0.0013478529132596,-0.0004570553480075,2.0064293956726527,8.0000000000000000,0.0000000000000000,0.2508535365079123
2.1535446197127723,-0.2945822831270686,0.6054557924626752,1.3945442075373247,0.0013018255264567,-0.0004603511872824,2.1067406779896922,8.0000000000000000,0.0000000000000000,0.2633963389627350
2.2538869117723799,-0.2944539724430262,0.6055846151870153,1.3944153848129845,0.0012554674301939,-0.0004636473880749,2.2070516302283392,8.0000000000000000,0.0000000000000000,0.2759391357248506
2.3542291449143296,-0.2943303301095581,0.6058036586121179,1.3941963413878822,0.0012087785971646,-0.0004669439560174,2.3073622513677958,8.0000000000000000,0.0000000000000000,0.2884819243896448
2.4545712997284981,-0.2942113893319300,0.6059103325180338,1.3940896674819663,0.0011617589996842,-0.0004702408967379,2.4076725403352435,8.0000000000000000,0.0000000000000000,0.3010247025530811
2.5549133568047697,-0.2940971833154084,0.6059395201664366,1.3940604798335636,0.0011144086096930,-0.0004735382158483,2.5079985717916591,8.0000000000000000,0.0000000000000000,0.3135674678117072
2.6552552967330234,-0.2939877452652589,0.6060579920308693,1.3939420079691307,0.0010667273987564,-0.0004768359189792,2.6083082887097784,8.0000000000000000,0.0000000000000000,0.3261102177626575
2.7555971001031407,-0.2938831083867479,0.6061835628779867,1.3938164371220136,0.0010187153380607,-0.0004801340117419,2.7086176600929504,8.0000000000000000,0.0000000000000000,0.3386529500036580
2.8559387475050051,-0.2937833058851414,0.6066270403514172,1.3933729596485829,0.0009703723984213,-0.0004834324997442,2.8089266847288825,8.0000000000000000,0.0000000000000000,0.3511956621330303
2.9562802195284945,-0.2936883709657053,0.6064800976906130,1.3935199023093869,0.0009216985502754,-0.0004867313886257,2.9092353613842441,8.0000000000000000,0.0000000000000000,0.3637383517496952
3.0566214967634928,-0.2935983368337058,0.6064349251114171,1.3935650748885828,0.0008726937636820,-0.0004900306839969,3.0095436888115796,8.0000000000000000,0.0000000000000000,0.3762810164531781
3.1569625597998776,-0.2935132366944089,0.6065344977753818,1.3934655022246178,0.0008233580083286,-0.0004933303914557,3.1098516657562914,8.0000000000000000,0.0000000000000000,0.3888236538436114
3.2573033892275345,-0.2934331037530808,0.6066057019777868,1.3933942980222132,0.0007736912535266,-0.0004966305166221,3.2101592909637295,8.0000000000000000,0.0000000000000000,0.4013662615217410
3.3576439656363415,-0.2933579712149873,0.6066697355090502,1.3933302644909495,0.0007236934682111,-0.0004999310651201,3.3104665631863326,8.0000000000000000,0.0000000000000000,0.4139088370889279
3.4579842696161793,-0.2932878722853945,0.6067670884823477,1.3932329115176521,0.0006733646209409,-0.0005032320425524,3.4107734811908541,8.0000000000000000,0.0000000000000000,0.4264513781471538
3.5583242817569305,-0.2932228401695687,0.6069300936418222,1.3930699063581777,0.0006227046799023,-0.0005065334545193,3.5110800437656513,8.0000000000000000,0.0000000000000000,0.4389938822990256
3.6586639826484757,-0.2931629080727758,0.6069731653895816,1.3930268346104184,0.0005717136129058,-0.0005098353066362,3.6113862497280285,8.0000000000000000,0.0000000000000000,0.4515363471477786
3.7590033528806970,-0.2931081092002818,0.6069393908193071,1.3930606091806927,0.0005203913873861,-0.0005131376045106,3.7116920979316199,8.0000000000000000,0.0000000000000000,0.4640787702972810
3.8593423730434715,-0.2930584767573528,0.6069741882966351,1.3930258117033647,0.0004687379704040,-0.0005164403537475,3.8119975872738259,8.0000000000000000,0.0000000000000000,0.4766211493520379
3.9596810237266866,-0.2930140439492548,0.6070325100402298,1.3929674899597702,0.0004167533286450,-0.0005197435599527,3.9123027167032984,8.0000000000000000,0.0000000000000000,0.4891634819171967
4.0600192855202186,-0.2929748439812541,0.6070749305894755,1.3929250694105244,0.0003644374284200,-0.0005230472287197,4.0126074852274192,8.0000000000000000,0.0000000000000000,0.5017057655985488
4.1603571390139527,-0.2929409100586165,0.6070965794123220,1.3929034205876780,0.0003117902356673,-0.0005263513656561,4.1129118919198415,8.0000000000000000,0.0000000000000000,0.5142479980025367
4.2606945647977632,-0.2929122753866080,0.6071169616429541,1.3928830383570456,0.0002588117159479,-0.0005296559763703,4.2132159359280097,8.0000000000000000,0.0000000000000000,0.5267901767362549
4.3610315434615385,-0.2928889731704949,0.6071357772031268,1.3928642227968731,0.0002055018344498,-0.0005329610664505,4.3135196164807441,8.0000000000000000,0.0000000000000000,0.5393322994074579
4.4613680555951554,-0.2928710366155432,0.6071527509179238,1.3928472490820762,0.0001518605559876,-0.0005362666414939,4.4138229328957523,8.0000000000000000,0.0000000000000000,0.5518743636245605
4.5617040817884957,-0.2928584989270189,0.6071677044113196,1.3928322955886803,0.0000978878450013,-0.0005395727071003,4.5141258845872168,8.0000000000000000,0.0000000000000000,0.5644163669966451
4.6620396026314417,-0.2928513933101880,0.6071803155607878,1.3928196844392122,0.0000435836655568,-0.0005428792688741,4.6144284710733174,8.0000000000000000,0.0000000000000000,0.5769583071334640
4.7623745987138726,-0.2928497529703166,0.6071903687172097,1.3928096312827902,-0.0000110520186556,-0.0005461863323981,4.7147306919837604,8.0000000000000000,0.0000000000000000,0.5895001816454439
4.8627090506256732,-0.2928536111126709,0.6071976717622921,1.3928023282377080,-0.0000660192443154,-0.0005494939032609,4.8150325470672959,8.0000000000000000,0.0000000000000000,0.6020419881436913
4.9630429389567192,-0.2928630009425167,0.6072015287616631,1.3927984712383368,-0.0001213180484787,-0.0005528019870714,4.9153497378822086,8.0000000000000000,0.0000000000000000,0.6145837242399942
5.0633762442968964,-0.2928779556651203,0.6071960415641183,1.3928039584358818,-0.0001769484685759,-0.0005561105894066,5.0156507210600321,8.0000000000000000,0.0000000000000000,0.6271253875468293
5.1637089472360831,-0.2928985084857476,0.6071695949170264,1.3928304050829734,-0.0002329105424073,-0.0005594197158609,5.1159513280231899,8.0000000000000000,0.0000000000000000,0.6396669756773637
5.2640410283641614,-0.2929246926096645,0.6071369574093182,1.3928630425906818,-0.0002892043081510,-0.0005627293720284,5.2162515590201100,8.0000000000000000,0.0000000000000000,0.6522084862454605
5.3643724682710126,-0.2929565412421375,0.6071164750889301,1.3928835249110698,-0.0003458298043555,-0.0005660395634778,5.3165514144529427,8.0000000000000000,0.0000000000000000,0.6647499168656822
5.4647032475465185,-0.2929940875884324,0.6071496773983341,1.3928503226016660,-0.0004027870699415,-0.0005693502958084,5.4168508948848277,8.0000000000000000,0.0000000000000000,0.6772912651532956
5.5650333467805559,-0.2930373648538152,0.6071594857294802,1.3928405142705198,-0.0004600761442062,-0.0005726615746160,5.5171500010470798,8.0000000000000000,0.0000000000000000,0.6898325287242749
5.6653627465630123,-0.2930864062435520,0.6071340704534511,1.3928659295465489,-0.0005176970668188,-0.0005759734054665,5.6174487338463210,8.0000000000000000,0.0000000000000000,0.7023737051953080
5.7656914274837661,-0.2931412449629090,0.6070499511696646,1.3929500488303357,-0.0005756498778189,-0.0005792857939355,5.7177470943715196,8.0000000000000000,0.0000000000000000,0.7149147921837977
5.8660193701326984,-0.2932019142171521,0.6069003261044918,1.3930996738955082,-0.0006339346176198,-0.0005825987456206,5.8180450839009596,8.0000000000000000,0.0000000000000000,0.7274557873078685
5.9663465550996859,-0.2932684472115474,0.6068128798120835,1.3931871201879165,-0.0006925513270100,-0.0005859122661016,5.9183427039091114,8.0000000000000000,0.0000000000000000,0.7399966881863688
6.0666729629746161,-0.2933408771513609,0.6067489011908263,1.3932510988091737,-0.0007515000471479,-0.0005892263609514,6.0186399560734296,8.0000000000000000,0.0000000000000000,0.7525374924388772
6.1669985743473674,-0.2934192372418586,0.6066806313004240,1.3933193686995762,-0.0008107808195656,-0.0005925410357549,6.1189368422810109,8.0000000000000000,0.0000000000000000,0.7650781976857051
6.2673233698078210,-0.2935035606883069,0.6066091166964674,1.3933908833035327,-0.0008703936861683,-0.0005958562960760,6.2192333646351869,8.0000000000000000,0.0000000000000000,0.7776188015479010
6.3676473299458580,-0.2935938806959715,0.6065319151674686,1.3934680848325312,-0.0009303386892299,-0.0005991721474906,6.3195295254619790,8.0000000000000000,0.0000000000000000,0.7901593016472555
6.4679704353513596,-0.2936902304701186,0.6064295798180919,1.3935704201819081,-0.0009906158713999,-0.0006024885955942,6.4198253273164445,8.0000000000000000,0.0000000000000000,0.8026996956063048
6.5682926666142070,-0.2937926432160141,0.6063213585642300,1.3936786414357700,-0.0010512252757011,-0.0006058056459426,6.5201207729888884,8.0000000000000000,0.0000000000000000,0.8152399810483355
6.6686140043242830,-0.2939011521389245,0.6062087001894505,1.3937912998105495,-0.0011121669455234,-0.0006091233040945,6.6204158655109602,8.0000000000000000,0.0000000000000000,0.8277801555973883
6.7689344290714670,-0.2940157904441154,0.6060915207782106,1.3939084792217895,-0.0011734409246307,-0.0006124415756420,6.7207106081615979,8.0000000000000000,0.0000000000000000,0.8403202168782621
6.8692539214456376,-0.2941365913368529,0.6059890477291077,1.3940109522708923,-0.0012350472571607,-0.0006157604661592,6.8210050044728376,8.0000000000000000,0.0000000000000000,0.8528601625165183
6.9695724620366786,-0.2942635880224032,0.6060268352822629,1.3939731647177371,-0.0012969859876217,-0.0006190799812046,6.9212990582354781,8.0000000000000000,0.0000000000000000,0.8653999901384860
7.0698900314344710,-0.2943968137060324,0.5981805316718832,1.4018194683281167,-0.0013592571608927,-0.0006224001263365,7.0215927735045822,8.0000000000000000,0.0000000000000000,0.8779396973712649
7.1702066102288953,-0.2945363015930065,0.5694038544852185,1.4305961455147815,-0.0014218608222230,-0.0006257209071278,7.1218861546048169,8.0000000000000000,0.0000000000000000,0.8904792818427300
7.2705221790098360,-0.2946820848885914,0.5552835347407217,1.4447164652592783,-0.0014847970172356,-0.0006290423291555,7.2221891433382579,8.0000000000000000,0.0000000000000000,0.9030187411815362
7.3708367183671673,-0.2948341967980533,0.5551369988178426,1.4448630011821573,-0.0015480657919249,-0.0006323643979732,7.3224814795406035,8.0000000000000000,0.0000000000000000,0.9155580730171212
7.4711502088907755,-0.2949926705266583,0.5549849090023127,1.4450150909976873,-0.0016116671926543,-0.0006356871191369,7.4227734841161723,8.0000000000000000,0.0000000000000000,0.9280972749797118
7.5714626311705420,-0.2951575392796725,0.5548263400651100,1.4451736599348899,-0.0016756012661587,-0.0006390104982210,7.5230651624224025,8.0000000000000000,0.0000000000000000,0.9406363447003265
7.6717739657963433,-0.2953288362623616,0.5546599821934284,1.4453400178065718,-0.0017398680595462,-0.0006423345407879,7.6233565201089561,8.0000000000000000,0.0000000000000000,0.9531752798107795
7.7720841933580660,-0.2955065946799922,0.5544846182689430,1.4455153817310569,-0.0018044676202937,-0.0006456592523799,7.7236475631220465,8.0000000000000000,0.0000000000000000,0.9657140779436871
7.8723932944455877,-0.2956908477378299,0.5543023609708460,1.4456976390291540,-0.0018693999962474,-0.0006489846385680,7.8239382977085299,8.0000000000000000,0.0000000000000000,0.9782527367324692
7.9727012496487903,-0.2958816286411409,0.5541110528515963,1.4458889471484035,-0.0019346652356280,-0.0006523107049166,7.9242287304198182,8.0000000000000000,0.0000000000000000,0.9907912538113550
8.0730080395575534,-0.2960789705951914,0.5538672606528173,1.4461327393471826,-0.0020002633870242,-0.0006556374569655,8.0245188681155657,8.0000000000000000,0.0000000000000000,1.0033296268153873
8.1733136447617643,-0.2962829068052473,0.5535488638155918,1.4464511361844083,-0.0020661944993945,-0.0006589649002801,8.1248087179671487,8.0000000000000000,0.0000000000000000,1.0158678533804268
8.2736180458512951,-0.2964934704765746,0.5533282970252235,1.4466717029747767,-0.0021324586220701,-0.0006622930404168,8.2250982874608933,8.0000000000000000,0.0000000000000000,1.0284059311431546
8.3739212234160334,-0.2967106948144396,0.5531194741075564,1.4468805258924438,-0.0021990558047507,-0.0006656218829164,8.3253875844011169,8.0000000000000000,0.0000000000000000,1.0409438577410792
8.4742231580458576,-0.2969346130241081,0.5528751622848189,1.4471248377151813,-0.0022659860975052,-0.0006689514333396,8.4256766169128881,8.0000000000000000,0.0000000000000000,1.0534816308125385
8.5745238303306515,-0.2971652583108463,0.5526618812670993,1.4473381187329009,-0.0023332495507751,-0.0006722816972406,8.5259653934445723,8.0000000000000000,0.0000000000000000,1.0660192479967054
8.6748232208602900,-0.2974026638799203,0.5525308116322575,1.4474691883677429,-0.0024008462153700,-0.0006756126801612,8.6262539227701058,8.0000000000000000,0.0000000000000000,1.0785567069335906
8.7751213102246606,-0.2976468629365960,0.5524878875869003,1.4475121124130998,-0.0024687761424693,-0.0006789443876497,8.7265422139910562,8.0000000000000000,0.0000000000000000,1.0910940052640490
8.8754180790136417,-0.2978978886861396,0.5522721579991405,1.4477278420008595,-0.0025370393836222,-0.0006822768252614,8.8268302765383542,8.0000000000000000,0.0000000000000000,1.1036311406297818
8.9757135078171135,-0.2981557743338170,0.5520516562550054,1.4479483437449945,-0.0026056359907487,-0.0006856099985424,8.9271181201738266,8.0000000000000000,0.0000000000000000,1.1161681106733417
9.0760075772249600,-0.2984205530848943,0.5518136201958727,1.4481863798041272,-0.0026745660161369,-0.0006889439130322,9.0274057549914115,8.0000000000000000,0.0000000000000000,1.1287049130381375
9.1763002678270595,-0.2986922581446377,0.5514722739658987,1.4485277260341012,-0.0027438295124447,-0.0006922785742792,9.1276931914181052,8.0000000000000000,0.0000000000000000,1.1412415453684375
9.2765915602132960,-0.2989709227183132,0.5510062895607666,1.4489937104392334,-0.0028134265326993,-0.0006956139878196,9.2279804402146297,8.0000000000000000,0.0000000000000000,1.1537780053093747
9.3768814349735479,-0.2992565800111868,0.5507524711980692,1.4492475288019306,-0.0028833571302957,-0.0006989501592006,9.3282675124757954,8.0000000000000000,0.0000000000000000,1.1663142905069497
9.4771698726976972,-0.2995492632285244,0.5504264899036664,1.4495735100963336,-0.0029536213590005,-0.0007022870939718,9.4285531446131809,8.0000000000000000,0.0000000000000000,1.1788503986080363
9.5774568539756260,-0.2998490055755925,0.5500122700522901,1.4499877299477095,-0.0030242192729479,-0.0007056247976581,9.5288392240980357,8.0000000000000000,0.0000000000000000,1.1913863272603853
9.6777423593972145,-0.3001558402576567,0.5497578647564915,1.4502421352435084,-0.0030951509266395,-0.0007089632758069,9.6291251479199875,8.0000000000000000,0.0000000000000000,1.2039220741126284
9.7780263695523431,-0.3004698004799833,0.5493903544736768,1.4506096455263231,-0.0031664163749487,-0.0007123025339600,9.7294109283952359,8.0000000000000000,0.0000000000000000,1.2164576368142830
9.8783088650308919,-0.3007909194478383,0.5490124092359702,1.4509875907640297,-0.0032380156731151,-0.0007156425776446,9.8296965781714025,8.0000000000000000,0.0000000000000000,1.2289930130157556
9.9785898264227431,-0.3011192303664877,0.5486580212057374,1.4513419787942625,-0.0033099488767474,-0.0007189834124036,9.9299821102261046,8.0000000000000000,0.0000000000000000,1.2415282003683477
10.0788692343177786,-0.3014547664411977,0.5483160201229602,1.4516839798770398,-0.0033822160418233,-0.0007223250437677,10.0302675378651891,8.0000000000000000,0.0000000000000000,1.2540631965242581
10.1791470693058841,-0.3017975608772343,0.5480448976872314,1.4519551023127686,-0.0034548172246875,-0.0007256674772721,10.1305528747206104,8.0000000000000000,0.0000000000000000,1.2665979991365897
10.2794233119769309,-0.3021476468798635,0.5478026522329967,1.4521973477670034,-0.0035277524820545,-0.0007290107184521,10.2308381347479482,8.0000000000000000,0.0000000000000000,1.2791326058593493
