# x_m,y_m,w_tr_right_m,w_tr_left_m,psi,kappa,s,velocity,acceleration,time
0.0005771858808670,0.0633953664156428,0.9634077956782765,0.9365922043217236,0.0031486322028673,0.0021917659095232,0.0000000000000000,8.0000000000000000,0.0000000000000000,0.0000000000000000
0.0523646793778302,0.0635584267242272,0.9635650806001316,0.9364349193998686,0.0030351255774357,0.0032741925760067,0.0517877502056446,8.0000000000000000,0.0000000000000000,0.0064734687757056
0.1041518182222922,0.0637097293967390,0.9637682169635597,0.9362317830364404,0.0028095073464021,0.0043296943797061,0.1035751100745769,8.0000000000000000,0.0000000000000000,0.0129468887593221
0.1559385594038861,0.0638494190666892,0.9639268335918482,0.9360731664081520,0.0025866805585228,0.0042758337139965,0.1553620396554400,8.0000000000000000,0.0000000000000000,0.0194202549569300
0.2077248599122471,0.0639776403675890,0.9639902263570747,0.9360097736429255,0.0023666447585913,0.0042219840535754,0.2071484988995733,8.0000000000000000,0.0000000000000000,0.0258935623624467
0.2595106767370080,0.0640945379329495,0.9641079254976670,0.9358920745023331,0.0021493995035278,0.0041681450466994,0.2589344476622297,8.0000000000000000,0.0000000000000000,0.0323668059577787
0.3112959668678021,0.0642002563962818,0.9642138618416063,0.9357861381583938,0.0019349443624292,0.0041143163402229,0.3107198457038015,8.0000000000000000,0.0000000000000000,0.0388399807129752
0.3630806872942625,0.0642949403910970,0.9643087663950453,0.9356912336049549,0.0017232789166175,0.0040604975796242,0.3625046526910399,8.0000000000000000,0.0000000000000000,0.0453130815863800
0.4148647950060242,0.0643787345509062,0.9643927810828495,0.9356072189171506,0.0015144027596863,0.0040066884090299,0.4142888281982791,8.0000000000000000,0.0000000000000000,0.0517861035247849
0.4666482469927206,0.0644517835092205,0.9644660477805056,0.9355339522194945,0.0013083154975475,0.0039528884712108,0.4660723317086519,8.0000000000000000,0.0000000000000000,0.0582590414635815
0.5184310002439839,0.0645142318995510,0.9645287083190468,0.9354712916809533,0.0011050167484792,0.0038990974075807,0.5178551226153101,8.0000000000000000,0.0000000000000000,0.0647318903269138
0.5702130117494478,0.0645662243554087,0.9645809044910282,0.9354190955089720,0.0009045061431721,0.0038453148582409,0.5696371602226451,8.0000000000000000,0.0000000000000000,0.0712046450278306
0.6219942384987481,0.0646079055103050,0.9646227780576149,0.9353772219423853,0.0007067833247734,0.0037915404619990,0.6214184037475077,8.0000000000000000,0.0000000000000000,0.0776773004684385
0.6737746374815160,0.0646394199977507,0.9646544707568718,0.9353455292431283,0.0005118479489319,0.0037377738563487,0.6731988123204182,8.0000000000000000,0.0000000000000000,0.0841498515400523
0.7255541656873873,0.0646609124512571,0.9646761243133543,0.9353238756866459,0.0003196996838442,0.0036840146775077,0.7249783449867930,8.0000000000000000,0.0000000000000000,0.0906222931233491
0.7773327801059935,0.0646725275043352,0.9646878804491182,0.9353121195508819,0.0001303382102960,0.0036302625604127,0.7767569607081519,8.0000000000000000,0.0000000000000000,0.0970946200885190
0.8291104377269688,0.0646744097904961,0.9646875528355199,0.9353124471644803,-0.0000562367782906,0.0035765171387503,0.8285346183633409,8.0000000000000000,0.0000000000000000,0.1035668272954176
0.8808870955399479,0.0646667039432509,0.9646802882552173,0.9353197117447828,-0.0002400255758184,0.0035227780449741,0.8803112767497452,8.0000000000000000,0.0000000000000000,0.1100389095937181
0.9326627105345627,0.0646495545961108,0.9646648627514313,0.9353351372485689,-0.0004210284634696,0.0034690449102989,0.9320868945845010,8.0000000000000000,0.0000000000000000,0.1165108618230626
0.9844372397004491,0.0646231063825869,0.9646387658922752,0.9353612341077250,-0.0005992457096662,0.0034153173647276,0.9838614305057163,8.0000000000000000,0.0000000000000000,0.1229826788132145
1.0362106400272377,0.0645875039361901,0.9646031616494535,0.9353968383505467,-0.0007746775700266,0.0033615950370423,1.0356348430736755,8.0000000000000000,0.0000000000000000,0.1294543553842094
1.0879828685045656,0.0645428918904318,0.9645585111011676,0.9354414888988325,-0.0009473242873248,0.0033078775548583,1.0874070907720637,8.0000000000000000,0.0000000000000000,0.1359258863465080
1.1397538821220634,0.0644894148788229,0.9645049564146864,0.9354950435853138,-0.0011171860914525,0.0032541645446131,1.1391781320091676,8.0000000000000000,0.0000000000000000,0.1423972665011460
1.1915236378693659,0.0644272175348745,0.9644426399158174,0.9355573600841828,-0.0012842631993766,0.0032004556315562,1.1909479251190975,8.0000000000000000,0.0000000000000000,0.1488684906398872
1.2432920927361062,0.0643564444920978,0.9643717041221105,0.9356282958778896,-0.0014485558150998,0.0031467504397975,1.2427164283629939,8.0000000000000000,0.0000000000000000,0.1553395535453742
1.2950592037119191,0.0642772403840039,0.9642922917802188,0.9357077082197813,-0.0016100641296233,0.0030930485923173,1.2944835999302418,8.0000000000000000,0.0000000000000000,0.1618104499912802
1.3468249277864373,0.0641897498441039,0.9642045459079407,0.9357954540920594,-0.0017687883209074,0.0030393497109584,1.3462493979396777,8.0000000000000000,0.0000000000000000,0.1682811747424597
1.3985892219492941,0.0640941175059088,0.9641086098415486,0.9358913901584516,-0.0019247285538335,0.0029856534164633,1.3980137804408037,8.0000000000000000,0.0000000000000000,0.1747517225551005
1.4503520431901245,0.0639904880029298,0.9640046272890962,0.9359953727109039,-0.0020778849801684,0.0029319593284587,1.4497767054149977,8.0000000000000000,0.0000000000000000,0.1812220881768747
1.5021133484985600,0.0638790059686780,0.9638925253698535,0.9361074746301467,-0.0022282577385235,0.0028782670654752,1.5015381307767190,8.0000000000000000,0.0000000000000000,0.1876922663470899
1.5538730948642359,0.0637598160366645,0.9637726341322147,0.9362273658677854,-0.0023758469543220,0.0028245762449977,1.5532980143747237,8.0000000000000000,0.0000000000000000,0.1941622517968405
1.6056312392767860,0.0636330628404004,0.9636451397842405,0.9363548602157596,-0.0025206527397623,0.0027708864834300,1.6050563139932694,8.0000000000000000,0.0000000000000000,0.2006320392491587
1.6573877387258416,0.0634988910133967,0.9635101882774540,0.9364898117225461,-0.0026626751937810,0.0027171973961147,1.6568129873533228,8.0000000000000000,0.0000000000000000,0.2071016234191654
1.7091425502010389,0.0633574451891647,0.9633679263375143,0.9366320736624858,-0.0028019144020188,0.0026635085973750,1.7085679921137749,8.0000000000000000,0.0000000000000000,0.2135709990142219
1.7608956306920105,0.0632088700012154,0.9632185015773121,0.9367814984226880,-0.0029383704367869,0.0026098197005046,1.7603212858726407,8.0000000000000000,0.0000000000000000,0.2200401607340801
1.8126469371883898,0.0630533100830598,0.9630620626253772,0.9369379373746229,-0.0030720433570317,0.0025561303177666,1.8120728261682717,8.0000000000000000,0.0000000000000000,0.2265091032710340
1.8643964266798108,0.0628909100682092,0.9628987592718997,0.9371012407281004,-0.0032029332083010,0.0025024400604349,1.8638225704805629,8.0000000000000000,0.0000000000000000,0.2329778213100704
1.9161440561559060,0.0627218145901746,0.9627287426350591,0.9372712573649410,-0.0033310400227125,0.0024487485387972,1.9155704762321577,8.0000000000000000,0.0000000000000000,0.2394463095290197
1.9678897826063106,0.0625461682824671,0.9625521653508244,0.9374478346491757,-0.0034563638189198,0.0023950553621554,1.9673165007896589,8.0000000000000000,0.0000000000000000,0.2459145625987074
2.0196335630206579,0.0623641157785979,0.9623691817899525,0.9376308182100477,-0.0035789046020811,0.0023413601388548,2.0190606014648309,8.0000000000000000,0.0000000000000000,0.2523825751831039
2.0713753543885804,0.0621758017120780,0.9621799483065826,0.9378200516934175,-0.0036986623638278,0.0022876624762800,2.0708027355158078,8.0000000000000000,0.0000000000000000,0.2588503419394760
2.1231151136997135,0.0619813707164185,0.9619846235236383,0.9380153764763618,-0.0038156370822320,0.0022339619808708,2.1225428601483021,8.0000000000000000,0.0000000000000000,0.2653178575185378
2.1748527979436876,0.0617809674251305,0.9617833686612268,0.9382166313387733,-0.0039298287217771,0.0021802582581443,2.1742809325168038,8.0000000000000000,0.0000000000000000,0.2717851165646005
2.2265883641101398,0.0615747364717252,0.9615763479154109,0.9384236520845892,-0.0040412372333269,0.0021265509126932,2.2260169097257974,8.0000000000000000,0.0000000000000000,0.2782521137157247
2.2783217691887026,0.0613628224897136,0.9613637288961753,0.9386362711038249,-0.0041498625540961,0.0020728395482234,2.2777507488309561,8.0000000000000000,0.0000000000000000,0.2847188436038695
2.3300529701690094,0.0611453701126069,0.9611456831351636,0.9388543168648366,-0.0042557046076226,0.0020191237675285,2.3294824068403530,8.0000000000000000,0.0000000000000000,0.2911853008550441
2.3817819240406930,0.0609225239739161,0.9609223866759184,0.9390776133240817,-0.0043587633037350,0.0019654031725116,2.3812118407156651,8.0000000000000000,0.0000000000000000,0.2976514800894581
2.4335085877933875,0.0606944287071524,0.9606940207620004,0.9393059792379997,-0.0044590385385275,0.0019116773642316,2.4329390073733803,8.0000000000000000,0.0000000000000000,0.3041173759216725
2.4852329184167274,0.0604612289458269,0.9604607726416156,0.9395392273583846,-0.0045565301943313,0.0018579459428775,2.4846638636860012,8.0000000000000000,0.0000000000000000,0.3105829829607502
2.5369548729003464,0.0602230693234506,0.9602228365114144,0.9397771634885858,-0.0046512381396870,0.0018042085077798,2.5363863664832489,8.0000000000000000,0.0000000000000000,0.3170482958104061
2.5886744082338744,0.0599800944735346,0.9599804146271104,0.9400195853728898,-0.0047431622293166,0.0017504646574411,2.5881064725532652,8.0000000000000000,0.0000000000000000,0.3235133090691582
2.6403914814069509,0.0597324490295902,0.9597337186147878,0.9402662813852123,-0.0048323023040986,0.0016967139895625,2.6398241386438310,8.0000000000000000,0.0000000000000000,0.3299780173304789
2.6921060494092055,0.0594802776251283,0.9594829710245190,0.9405170289754812,-0.0049186581910430,0.0016429561010033,2.6915393214635510,8.0000000000000000,0.0000000000000000,0.3364424151829439
2.7438180692302727,0.0592237248936601,0.9592284071776142,0.9407715928223860,-0.0050022297032617,0.0015891905878282,2.7432519776830731,8.0000000000000000,0.0000000000000000,0.3429064972103841
2.7955274978597875,0.0589629354686967,0.9589702773710054,0.9410297226289948,-0.0050830166399480,0.0015354170453259,2.7949620639362891,8.0000000000000000,0.0000000000000000,0.3493702579920361
2.8472342922873799,0.0586980539837492,0.9587088495175596,0.9412911504824405,-0.0051610187863489,0.0014816350679981,2.8466695368215342,8.0000000000000000,0.0000000000000000,0.3558336921026918
2.8989384095026889,0.0584292250723287,0.9584444123203708,0.9415555876796293,-0.0052362359137428,0.0014278442495968,2.8983743529028048,8.0000000000000000,0.0000000000000000,0.3622967941128506
2.9506398064953427,0.0581565933679462,0.9581751328790145,0.9418248671209857,-0.0053086677794156,0.0013740441830944,2.9500764687109440,8.0000000000000000,0.0000000000000000,0.3687595585888680
3.0023384402549778,0.0578803035041130,0.9578956519380288,0.9421043480619713,-0.0053783141266355,0.0013202344607340,3.0017758407448647,8.0000000000000000,0.0000000000000000,0.3752219800931081
3.0540342677712276,0.0576005001143401,0.9576127160017304,0.9423872839982698,-0.0054451746846331,0.0012664146740315,3.0534724254727439,8.0000000000000000,0.0000000000000000,0.3816840531840930
3.1057272460337244,0.0573173278321385,0.9573319284477998,0.9426680715522003,-0.0055092491685769,0.0012125844137828,3.1051661793332288,8.0000000000000000,0.0000000000000000,0.3881457724166536
3.1574173320321051,0.0570309312910195,0.9570891077426239,0.9429108922573762,-0.0055705372795536,0.0011587432700877,3.1568570587366471,8.0000000000000000,0.0000000000000000,0.3946071323420809
3.2091044827560000,0.0567414551244942,0.9568145319873725,0.9431854680126276,-0.0056290387045457,0.0011048908323182,3.2085450200662025,8.0000000000000000,0.0000000000000000,0.4010681275082753
3.2607886551950420,0.0564490439660735,0.9565400583963737,0.9434599416036265,-0.0056847531164086,0.0010510266891724,3.2602300196791867,8.0000000000000000,0.0000000000000000,0.4075287524598983
3.3124698063388673,0.0561538424492686,0.9562696884315202,0.9437303115684800,-0.0057376801738531,0.0009971504286987,3.3119120139081870,8.0000000000000000,0.0000000000000000,0.4139890017385234
3.3641478931771096,0.0558559952075907,0.9559982116567771,0.9440017883432230,-0.0057878195214252,0.0009432616382684,3.3635909590622850,8.0000000000000000,0.0000000000000000,0.4204488698827856
3.4158228726994007,0.0555556468745508,0.9556917412365534,0.9443082587634467,-0.0058351707894848,0.0008893599045952,3.4152668114282632,8.0000000000000000,0.0000000000000000,0.4269083514285329
3.4674947018953755,0.0552529420836601,0.9553417844081614,0.9446582155918387,-0.0058797335941880,0.0008354448137613,3.4669395272718146,8.0000000000000000,0.0000000000000000,0.4333674409089768
3.5191633377546672,0.0549480254684296,0.9549539604354046,0.9450460395645955,-0.0059215075374681,0.0007815159512204,3.5186090628387454,8.0000000000000000,0.0000000000000000,0.4398261328548432
3.5708287372669081,0.0546410416623704,0.9546530506631203,0.9453469493368798,-0.0059604922070173,0.0007275729018082,3.5702753743561804,8.0000000000000000,0.0000000000000000,0.4462844217945225
3.6224908574217336,0.0543321352989937,0.9543532932767694,0.9456467067232307,-0.0059966871762693,0.0006736152497605,3.6219384180337744,8.0000000000000000,0.0000000000000000,0.4527423022542218
3.6741496552087778,0.0540214510118105,0.9540557605689792,0.9459442394310209,-0.0060300920043823,0.0006196425787176,3.6735981500649126,8.0000000000000000,0.0000000000000000,0.4591997687581141
3.7258050876176729,0.0537091334343320,0.9537618295297429,0.9462381704702573,-0.0060607062362217,0.0005656544717422,3.7252545266279191,8.0000000000000000,0.0000000000000000,0.4656568158284899
3.7774571116380522,0.0533953272000693,0.9534620446554761,0.9465379553445240,-0.0060885294023447,0.0005116505113148,3.7769075038872648,8.0000000000000000,0.0000000000000000,0.4721134379859081
3.8291056842595492,0.0530801769425334,0.9531442180788554,0.9468557819211447,-0.0061135610189826,0.0004576302793673,3.8285570379947753,8.0000000000000000,0.0000000000000000,0.4785696297493469
3.8807507624717994,0.0527638272952355,0.9527933554953453,0.9472066445046549,-0.0061358005880283,0.0004035933572888,3.8802030850908387,8.0000000000000000,0.0000000000000000,0.4850253856363548
3.9323923032644341,0.0524464228916867,0.9524663875839431,0.9475336124160570,-0.0061552475970188,0.0003495393259141,3.9318456013056085,8.0000000000000000,0.0000000000000000,0.4914807001632011
3.9840302636270897,0.0521281083653980,0.9521527319508127,0.9478472680491874,-0.0061719015191215,0.0002954677655793,3.9834845427602201,8.0000000000000000,0.0000000000000000,0.4979355678450275
4.0356646005493984,0.0518090283498807,0.9518258409145315,0.9481741590854686,-0.0061857618131222,0.0002413782560943,4.0351198655679923,8.0000000000000000,0.0000000000000000,0.5043899831959990
4.0872952710209915,0.0514893274786457,0.9514962518261557,0.9485037481738444,-0.0061968279234084,0.0001872703767543,4.0867515258356351,8.0000000000000000,0.0000000000000000,0.5108439407294544
4.1389222320315069,0.0511691503852042,0.9530282978804513,0.9469717021195488,-0.0062050992799576,0.0001331437063853,4.1383794796644713,8.0000000000000000,0.0000000000000000,0.5172974349580589
4.1905454405705731,0.0508486417030672,0.9512483458080474,0.9487516541919527,-0.0062105752983257,0.0000789978233311,4.1900036831516267,8.0000000000000000,0.0000000000000000,0.5237504603939533
4.2421648536278287,0.0505279460657460,0.9505598860140454,0.9494401139859547,-0.0062132553796337,0.0000248323054696,4.2416240923912616,8.0000000000000000,0.0000000000000000,0.5302030115489077
4.2937804281929051,0.0502072081067516,0.9502272091000036,0.9497727908999966,-0.0062131389105569,-0.0000293532697790,4.2932406634757623,8.0000000000000000,0.0000000000000000,0.5366550829344703
4.3453921212554363,0.0498865724595951,0.9496533659347947,0.9503466340652055,-0.0062102252633127,-0.0000835593254510,4.3448533524969628,8.0000000000000000,0.0000000000000000,0.5431066690621204
4.3969998898050555,0.0495661837577876,0.9495263321062680,0.9504736678937321,-0.0062045137956497,-0.0001377862849900,4.3964621155473527,8.0000000000000000,0.0000000000000000,0.5495577644434191
4.4486036908313951,0.0492461866348402,0.9492320999277801,0.9507679000722200,-0.0061960038508400,-0.0001920345722674,4.4480669087212892,8.0000000000000000,0.0000000000000000,0.5560083635901611
4.5002034813240908,0.0489267257242641,0.9486435964126326,0.9513564035873675,-0.0061846947576658,-0.0002463046115778,4.4996676881162117,8.0000000000000000,0.0000000000000000,0.5624584610145265
4.5517992182727749,0.0486079456595702,0.9486037926656210,0.9513962073343791,-0.0061705858304126,-0.0003005968275956,4.5512644098338502,8.0000000000000000,0.0000000000000000,0.5689080512292313
4.6033908586670815,0.0482899910742698,0.9482761105553075,0.9517238894446927,-0.0061536763688594,-0.0003549116453832,4.6028570299814424,8.0000000000000000,0.0000000000000000,0.5753571287476803
4.6549783594966438,0.0479730066018739,0.9479396485856439,0.9520603514143562,-0.0061339656582708,-0.0004092494903752,4.6544455046729452,8.0000000000000000,0.0000000000000000,0.5818056880841181
4.7065616777510968,0.0476571368758937,0.9476263762769920,0.9523736237230082,-0.0061114529693889,-0.0004636107883778,4.7060297900302510,8.0000000000000000,0.0000000000000000,0.5882537237537814
4.7581407704200736,0.0473425265298401,0.9473311998804642,0.9526688001195359,-0.0060861375584247,-0.0005179959655300,4.7576098421844000,8.0000000000000000,0.0000000000000000,0.5947012302730500
4.8097155944932073,0.0470293201972245,0.9469265019377467,0.9530734980622534,-0.0060580186670542,-0.0005724054483221,4.8091856172767971,8.0000000000000000,0.0000000000000000,0.6011482021595996
4.8612861069601294,0.0467176625115577,0.9463407612725296,0.9536592387274705,-0.0060270955224078,-0.0006268396635713,4.8607570714604247,8.0000000000000000,0.0000000000000000,0.6075946339325531
4.9128522648104784,0.0464076981063511,0.9464019801859398,0.9535980198140603,-0.0059933673370676,-0.0006812990383873,4.9123241609010710,8.0000000000000000,0.0000000000000000,0.6140405201126339
4.9644140250338840,0.0460995716151155,0.9460834813419616,0.9539165186580385,-0.0059568333090609,-0.0007357840002098,4.9638868417785291,8.0000000000000000,0.0000000000000000,0.6204858552223161
5.0159713446199810,0.0457934276713623,0.9457718837392768,0.9542281162607233,-0.0059174926218537,-0.0007902949767416,5.0154450702878295,8.0000000000000000,0.0000000000000000,0.6269306337859787
5.0675241805584044,0.0454894109086024,0.9454583262476233,0.9545416737523769,-0.0058753444443498,-0.0008448323959779,5.0669988026404535,8.0000000000000000,0.0000000000000000,0.6333748503300567
5.1190724898387829,0.0451876659603469,0.9451143694387670,0.9548856305612331,-0.0058303879308814,-0.0008993966861927,5.1185479950655477,8.0000000000000000,0.0000000000000000,0.6398184993831935
5.1706162294507552,0.0448883374601071,0.9448073295032487,0.9551926704967514,-0.0057826222212098,-0.0009539882758761,5.1700926038111561,8.0000000000000000,0.0000000000000000,0.6462615754763945
5.2221553563839542,0.0445915700413939,0.9445311405879933,0.9554688594120069,-0.0057320464405217,-0.0010086075937848,5.2216325851454295,8.0000000000000000,0.0000000000000000,0.6527040731431787
5.2736898276280106,0.0442975083377184,0.9442651971593012,0.9557348028406989,-0.0056786596994243,-0.0010632550689115,5.2731678953578465,8.0000000000000000,0.0000000000000000,0.6591459869197308
5.3252196001725602,0.0440062969825919,0.9439915906680745,0.9560084093319257,-0.0056224610939446,-0.0011179311304433,5.3246984907604453,8.0000000000000000,0.0000000000000000,0.6655873113450557
