# x_m,y_m,w_tr_right_m,w_tr_left_m,psi,kappa,s,velocity,acceleration,time
-0.0033471063674061,0.1208587904276398,1.0209020228084338,0.8790979771915665,0.0419861055304063,0.0006578560389087,0.0000000000000000,8.0000000000000000,0.0000000000000000,0.0000000000000000
0.0965493692946697,0.1250555207317383,1.0250997206435843,0.8749002793564156,0.0419203300635589,0.0010504150262386,0.0999845907875261,8.0000000000000000,0.0000000000000000,0.0124980738484408
0.1964463961761541,0.1292391095249154,1.0292844047031566,0.8707155952968436,0.0417760548972952,0.0015676804392923,0.1999691815750590,8.0000000000000000,0.0000000000000000,0.0249961476968824
0.2963440786473243,0.1334070144934283,1.0334533264567254,0.8665466735432745,0.0416068422891425,0.0018192100929128,0.2999537723625263,8.0000000000000000,0.0000000000000000,0.0374942215453158
0.3962425156402563,0.1375567953747525,1.0376042553095828,0.8623957446904171,0.0414122689439020,0.0013287809732371,0.3999383631502762,8.0000000000000000,0.0000000000000000,0.0499922953937845
0.4961418124737546,0.1416858251761407,1.0417339443380176,0.8582660556619822,0.0413411270454316,0.0008301675933818,0.4999229539376979,8.0000000000000000,0.0000000000000000,0.0624903692422122
0.5960408389019736,0.1458213920865800,1.0458704159509487,0.8541295840490511,0.0412462610096833,0.0018170681125579,0.5999075447253623,8.0000000000000000,0.0000000000000000,0.0749884430906703
0.6959409173466293,0.1499314677132289,1.0499819136510629,0.8500180863489374,0.0409777694220974,0.0028119408082941,0.6998921355126689,8.0000000000000000,0.0000000000000000,0.0874865169390836
0.7958421501011650,0.1540133899335731,1.0540650375553624,0.8459349624446375,0.0406839595076127,0.0030659587942607,0.7998767262998940,8.0000000000000000,0.0000000000000000,0.0999845907874868
0.8957446264614772,0.1580647615870516,1.0581178865348009,0.8418821134651993,0.0403646721512634,0.0019999680489004,0.8998613170886619,8.0000000000000000,0.0000000000000000,0.1124826646360827
0.9956484454596251,0.1620828885784773,1.0621365903004441,0.8378634096995563,0.0402840275336955,0.0009213540436137,0.9998459078761123,8.0000000000000000,0.0000000000000000,0.1249807384845140
1.0955515739620354,0.1661181469852848,1.0661722626333532,0.8338277373666468,0.0401804297372210,0.0024814706556991,1.0998304986637872,8.0000000000000000,0.0000000000000000,0.1374788123329734
1.1954562233528274,0.1701155742595493,1.0701710972987568,0.8298289027012437,0.0397878098775755,0.0040558449796244,1.1998150894501185,8.0000000000000000,0.0000000000000000,0.1499768861812648
1.2953624896990317,0.1740723835257306,1.0741289310093642,0.8258710689906360,0.0393693857360580,0.0043121270907454,1.2997996802369374,8.0000000000000000,0.0000000000000000,0.1624749600296172
1.3952704493519084,0.1779862043758988,1.0780442111972215,0.8219557888027788,0.0389255173523795,0.0026758636564387,1.3997842710279591,8.0000000000000000,0.0000000000000000,0.1749730338784949
1.4951801889370109,0.1818543216287144,1.0819124706667154,0.8180875293332850,0.0388342954706629,0.0010241438177826,1.4997688618159626,8.0000000000000000,0.0000000000000000,0.1874711077269953
1.5950888609754783,0.1857499148295410,1.0858078961179116,0.8141921038820890,0.0387207201513222,0.0031518271808084,1.5997534526031252,8.0000000000000000,0.0000000000000000,0.1999691815753906
1.6949994766244811,0.1895953374214528,1.0896546530541686,0.8103453469458316,0.0382040271688624,0.0052995315364233,1.6997380433872713,8.0000000000000000,0.0000000000000000,0.2124672554234089
1.7949121209671037,0.1933876843411378,1.0934477851439066,0.8065522148560934,0.0376609771672771,0.0055576464822015,1.7997226341735251,8.0000000000000000,0.0000000000000000,0.2249653292716906
1.8948268542116451,0.1971245917667609,1.0971860762534362,0.8028139237465640,0.0370926691502989,0.0033513653144528,1.8997072249684848,8.0000000000000000,0.0000000000000000,0.2374634031210606
1.9947437444605116,0.2008033739477989,1.1008645196865328,0.7991354803134674,0.0369908073881555,0.0011285373527969,1.9996918157579637,8.0000000000000000,0.0000000000000000,0.2499614769697455
2.0946592369183854,0.2045199263140905,1.1045802600703531,0.7954197399296472,0.0368669964594830,0.0038232286327933,2.0996764065436984,8.0000000000000000,0.0000000000000000,0.2624595508179623
2.1945770350416383,0.2081739667763138,1.1082355048655590,0.7917644951344410,0.0362262794875161,0.0065430400549758,2.1996609973239716,8.0000000000000000,0.0000000000000000,0.2749576246654964
2.2944972079801311,0.2117624810226578,1.1118245140756080,0.7881754859243921,0.0355585900947371,0.0068024790916893,2.2996455881095250,8.0000000000000000,0.0000000000000000,0.2874556985136906
2.3944197965622496,0.2152830901593481,1.1153463747413803,0.7846536252586199,0.0348659933107913,0.0040256297149405,2.3996301789105314,8.0000000000000000,0.0000000000000000,0.2999537723638164
2.4943448444312710,0.2187331922265709,1.1187956326184119,0.7812043673815886,0.0347535882152428,0.0012330717020026,2.4996147697028155,8.0000000000000000,0.0000000000000000,0.3124518462128519
2.5942682219391791,0.2222313376576266,1.1222922972172884,0.7777077027827118,0.0346194169717182,0.0044950512122605,2.5995993604858194,8.0000000000000000,0.0000000000000000,0.3249499200607274
2.6941941920014245,0.2256546254644667,1.1257166081658387,0.7742833918341614,0.0338547165032692,0.0077864173670129,2.6995839512600446,8.0000000000000000,0.0000000000000000,0.3374479939075056
2.7941228027121725,0.2289999439567893,1.1290620974781767,0.7709379025218236,0.0330623734635600,0.0080466114095173,2.7995685420448013,8.0000000000000000,0.0000000000000000,0.3499460677556002
2.8940540721754813,0.2322648762390047,1.1323280985277280,0.7676719014722722,0.0322456422051005,0.0046987980981014,2.8995531328543649,8.0000000000000000,0.0000000000000000,0.3624441416067956
2.9939880140335045,0.2354469607013323,1.1355088375479527,0.7644911624520476,0.0321227586533490,0.0013381509341636,2.9995377236511880,8.0000000000000000,0.0000000000000000,0.3749422154563985
3.0939200828608118,0.2386873330655534,1.1387470766701284,0.7612529233298718,0.0319780532579714,0.0051675878339419,3.0995223144297901,8.0000000000000000,0.0000000000000000,0.3874402893037238
3.1938549414319346,0.2418404954328861,1.1419010366517144,0.7580989633482855,0.0310894003436384,0.0090297113882290,3.1995069051952929,8.0000000000000000,0.0000000000000000,0.3999383631494116
3.2937926115607441,0.2449032529245241,1.1449636253170916,0.7550363746829086,0.0301723892620398,0.0092900728180790,3.2994914959792099,8.0000000000000000,0.0000000000000000,0.4124364369974012
3.3937330850815206,0.2478731273477230,1.1479343421406396,0.7520656578593606,0.0292316720851569,0.0053709379706046,3.3994760868002287,8.0000000000000000,0.0000000000000000,0.4249345108500286
3.4936763407242779,0.2507478533642462,1.1508072554174911,0.7491927445825091,0.0290983671915019,0.0014438479705419,3.4994606776037300,8.0000000000000000,0.0000000000000000,0.4374325847004663
3.5936176024418818,0.2536910825724023,1.1537477581659801,0.7462522418340201,0.0289429469881679,0.0058409039567044,3.5994452683759004,8.0000000000000000,0.0000000000000000,0.4499306585469875
3.6935617467874016,0.2565347420468783,1.1565919541810434,0.7434080458189566,0.0279303664079091,0.0102729523088382,3.6994298591295003,8.0000000000000000,0.0000000000000000,0.4624287323911875
3.7935087640819658,0.2592755681966444,1.1593322763790208,0.7406677236209794,0.0268886731230040,0.0105329534309916,3.7994144499125961,8.0000000000000000,0.0000000000000000,0.4749268062390745
3.8934586160435951,0.2619109993644199,1.1619682887546783,0.7380317112453219,0.0258241003302844,0.0060423086571818,3.8993990407483428,8.0000000000000000,0.0000000000000000,0.4874248800935428
3.9934112424383925,0.2644390177125875,1.1644940912478503,0.7355059087521498,0.0256803976055600,0.0015503612444627,3.9993836315610607,8.0000000000000000,0.0000000000000000,0.4999229539451326
4.0933618476369054,0.2670457226379320,1.1670975776050403,0.7329024223949597,0.0255140758610819,0.0065150359245701,4.0993682223244221,8.0000000000000000,0.0000000000000000,0.5124210277905528
4.1933153093558841,0.2695404922545760,1.1695925968360321,0.7304074031639680,0.0243775912042716,0.0115161433114048,4.1993528130624327,8.0000000000000000,0.0000000000000000,0.5249191016328041
4.2932715813368345,0.2719200059839157,1.1719712960116442,0.7280287039883564,0.0232112021088289,0.0117754228665024,4.2993374038448016,8.0000000000000000,0.0000000000000000,0.5374171754806002
4.3932305909447731,0.2741815997709961,1.1742331845240073,0.7257668154759928,0.0220228695302340,0.0067133614167536,4.3993219946988811,8.0000000000000000,0.0000000000000000,0.5499152493373601
4.4931922359671912,0.2763235444155942,1.1763726024025165,0.7236273975974837,0.0218687367200046,0.0016628021873542,4.4993065855239101,8.0000000000000000,0.0000000000000000,0.5624133231904888
4.5931519378944321,0.2785543241673430,1.1785998109685456,0.7214001890314544,0.0216903603377057,0.0072483851339890,4.5992911762751039,8.0000000000000000,0.0000000000000000,0.5749113970343880
4.6931143405952662,0.2806606070809109,1.1807060362359805,0.7192939637640197,0.0204192830777732,0.0130419986816072,4.6992757669950525,8.0000000000000000,0.0000000000000000,0.5874094708743816
4.7930793905288720,0.2826372668905495,1.1826815999290556,0.7173184000709444,0.0190823625363004,0.0137771865464751,4.7992603577689881,8.0000000000000000,0.0000000000000000,0.5999075447211235
4.8930470679355222,0.2844762590175892,1.1845205600831124,0.7154794399168880,0.0176642703582583,0.0087897719473126,4.8992449486724041,8.0000000000000000,0.0000000000000000,0.6124056185840505
4.9930173219896128,0.2861693919465294,1.1862109565924364,0.7137890434075638,0.0173246790327548,0.0038692546534777,4.9992295394589572,8.0000000000000000,0.0000000000000000,0.6249036924323697
5.0929862252456877,0.2879404873406994,1.1879782909884142,0.7120217090115857,0.0168905386718587,0.0106715192237510,5.0992141302573284,8.0000000000000000,0.0000000000000000,0.6374017662821660
5.1929579116043403,0.2895468173958361,1.1895842203175064,0.7104157796824938,0.0151907040686539,0.0175100382996818,5.1991987209182842,8.0000000000000000,0.0000000000000000,0.6498998401147855
5.2929322582468998,0.2909780420074802,1.1910141178998124,0.7089858821001878,0.0133890706463298,0.0184628897223726,5.2991833116835396,8.0000000000000000,0.0000000000000000,0.6623979139604425
5.3929090839730183,0.2922241377556617,1.1922598347551241,0.7077401652448760,0.0114986951178999,0.0129495044093544,5.3991679026807740,8.0000000000000000,0.0000000000000000,0.6748959878350967
5.4928881271018914,0.2932773749206296,1.1933102745476352,0.7066897254523650,0.0107995688464626,0.0074827783532910,5.4991524933609917,8.0000000000000000,0.0000000000000000,0.6873940616701240
5.5928665973649334,0.2943836766447262,1.1944128459042913,0.7055871540957089,0.0100023700545637,0.0148633061032484,5.5991370842720052,8.0000000000000000,0.0000000000000000,0.6998921355340006
5.6928471925729092,0.2952775061923293,1.1953059251137750,0.7046940748862253,0.0078273656910466,0.0222627481457872,5.6991216748317575,8.0000000000000000,0.0000000000000000,0.7123902093539697
5.7928295291717333,0.2959488916024450,1.1959758236077040,0.7040241763922960,0.0055505065338466,0.0232018355852159,5.7991062655951824,8.0000000000000000,0.0000000000000000,0.7248882831993978
5.8928131585549561,0.2963874299913059,1.1964136196921824,0.7035863803078178,0.0031877136109786,0.0171058816292875,5.8990908567108145,8.0000000000000000,0.0000000000000000,0.7373863570888518
5.9927975512449070,0.2965863345472989,1.1966098281339921,0.7033901718660082,0.0021298573830126,0.0110977115273661,5.9990754472465602,8.0000000000000000,0.0000000000000000,0.7498844309058200
6.0927818846234123,0.2968133355029053,1.1968332978318723,0.7031667021681278,0.0009685133192021,0.0190620857795515,6.0990600383122739,8.0000000000000000,0.0000000000000000,0.7623825047890342
6.1927664694951936,0.2967800071686069,1.1967989829619143,0.7032010170380856,-0.0016819723078592,0.0270137677783290,6.1990446287388004,8.0000000000000000,0.0000000000000000,0.7748805785923500
6.2927506011006464,0.2964769933421783,1.1964944328226146,0.7035055671773855,-0.0044334077043056,0.0279360674019959,6.2990292195029554,8.0000000000000000,0.0000000000000000,0.7873786524378694
6.3927334895662007,0.2958934660328568,1.1959098091962859,0.7040901908037144,-0.0072683248552927,0.0212626560559084,6.3990138107659904,8.0000000000000000,0.0000000000000000,0.7998767263457488
6.4927142956346726,0.2950235666568107,1.1950374830527519,0.7049625169472481,-0.0086852836346791,0.0147131429095982,6.4989984011138331,8.0000000000000000,0.0000000000000000,0.8123748001392291
6.5926951289521574,0.2941566988079938,1.1941672251649960,0.7058327748350041,-0.0102105000018997,0.0232548609786517,6.5989829923803178,8.0000000000000000,0.0000000000000000,0.8248728740475397
6.6926728161998748,0.2929818192280500,1.1929910241687380,0.7070089758312621,-0.0133355391510888,0.0317528976854425,6.6989675826401660,8.0000000000000000,0.0000000000000000,0.8373709478300208
6.7926462782658703,0.2914900843522548,1.1914977499363855,0.7085022500636147,-0.0165601009472165,0.0326679872465844,6.7989521734049472,8.0000000000000000,0.0000000000000000,0.8498690216756184
6.8926143107193836,0.2896704651911989,1.1896767307767098,0.7103232692232903,-0.0198681298452432,0.0254404953952733,6.8989367648504194,8.0000000000000000,0.0000000000000000,0.8623670956063024
6.9925757147766809,0.2875173375965753,1.1875220578319581,0.7124779421680421,-0.0216474159897853,0.0183298927032905,6.9989213549608209,8.0000000000000000,0.0000000000000000,0.8748651693701026
7.0925366390959441,0.2853419872384839,1.1853434532854659,0.7146565467145343,-0.0235335434883577,0.0274154050069942,7.0989059464734234,8.0000000000000000,0.0000000000000000,0.8873632433091779
7.1924892097639264,0.2828117959499208,1.1828114980641200,0.7171885019358800,-0.0271296520917386,0.0364611893604063,7.1988905365415672,8.0000000000000000,0.0000000000000000,0.8998613170676959
7.2924319024853785,0.2799175673990488,1.1799158061427464,0.7200841938572538,-0.0308246576563904,0.0374028378306346,7.2988751272909385,8.0000000000000000,0.0000000000000000,0.9123593909113673
7.3923630474945750,0.2766488012610587,1.1766450964316379,0.7233549035683622,-0.0346090669935490,0.0295392552564766,7.3988597189784278,8.0000000000000000,0.0000000000000000,0.9248574648723035
7.4922809709116507,0.2729982147425749,1.1729943903158855,0.7270056096841144,-0.0367315983524332,0.0216745844274872,7.4988443088006074,8.0000000000000000,0.0000000000000000,0.9373555386000759
7.5921973395294184,0.2693052653537507,1.1692975167538726,0.7307024832461274,-0.0389433159030308,0.0313593441708576,7.5988289005782912,8.0000000000000000,0.0000000000000000,0.9498536125722864
7.6920981374092063,0.2652127355346640,1.1652020002782584,0.7347979997217416,-0.0430025007442076,0.0411043196112944,7.6988134904776269,8.0000000000000000,0.0000000000000000,0.9623516863097034
7.7919812318313282,0.2607087587931568,1.1606960968643547,0.7393039031356454,-0.0471629130107616,0.0421636263419227,7.7987980810795117,8.0000000000000000,0.0000000000000000,0.9748497601349390
7.8918445208147485,0.2557851231201790,1.1557689836636431,0.7442310163363569,-0.0514339266472232,0.0319266257722584,7.8987826732666395,8.0000000000000000,0.0000000000000000,0.9873478341583299
7.9916854975852889,0.2504281170007820,1.1504138599817406,0.7495861400182594,-0.0535472542435966,0.0212733732753406,7.9987672628645310,8.0000000000000000,0.0000000000000000,0.9998459078580664
8.0915270837561781,0.2450824388995152,1.1450609317559459,0.7549390682440543,-0.0556879456873105,0.0332347328000977,8.0987518546948802,8.0000000000000000,0.0000000000000000,1.0123439818368600
8.1913442104032566,0.2392980257151942,1.1392699335912828,0.7607300664087173,-0.0601931765650792,0.0455761713594210,8.1987364445473467,8.0000000000000000,0.0000000000000000,1.0248420555684183
8.2911335753239719,0.2330529581193813,1.1330211299004018,0.7669788700995983,-0.0648017752910148,0.0471892787372052,8.2987210344627726,8.0000000000000000,-3.2135980530446475,1.0373401293078466
8.3908931502065975,0.2263487692737419,1.1263082042509660,0.7736917957490340,-0.0696295780981104,0.0262120428314117,8.3987056279201653,7.9597348831642449,-6.8314756673470569,1.0498697351176356
8.4906175669825448,0.2191404808190946,1.1191082171393589,0.7808917828606414,-0.0700433761565042,0.0029167454819050,8.4986902203519410,7.8734550731967188,-6.9671913125315204,1.0624994822131166
8.5903715539321279,0.2123537340219476,1.1123042955130962,0.7876957044869040,-0.0702128373017556,0.0252946777843941,8.5986748083864288,7.7844763011628020,-5.5510112731166936,1.0752705929868189
8.6900935198470979,0.2051116473014942,1.1050486758210374,0.7949513241789627,-0.0751015320903672,0.0495728002061235,8.6986593987292053,7.7128490265986587,-5.3917279959405402,1.0881740570657032
8.7897763839355036,0.1973499067738211,1.0972807518062806,0.8027192481937196,-0.0801258694696045,0.0532148504921202,8.7986439875861215,7.6426344079315349,-5.3638689093582608,1.1011967130157045
8.8894205459941453,0.1891061287167188,1.0890180411641552,0.8109819588358450,-0.0857428622249812,0.0090364153983218,8.8986285809444166,7.5721365670357681,-6.0858881352610750,1.1143398084356486
8.9890099561715626,0.1802250630946744,1.0801543234721058,0.8198456765278943,-0.0819328743352594,-0.0430167605792710,8.9986131994918157,7.4913457924719902,-6.0658442409186719,1.1276149085965739
9.0887140066869883,0.1727408061322831,1.0726217797612130,0.8273782202387869,-0.0771408360443169,0.0018944418187322,9.0985977572568100,7.4099446876875268,-5.6257314836922889,1.1410344923431119
9.1883839361812765,0.1648146077480836,1.0646824891945328,0.8353175108054675,-0.0823117042628825,0.0534426405436370,9.1985823534015267,7.3336421574656487,-5.3623915988127440,1.1545976228343311
9.2880052861398230,0.1562996537037439,1.0561576514768405,0.8438423485231594,-0.0878277172649939,0.0595258725577422,9.2985669412635588,7.2601648924685716,-5.3283742329932817,1.1682999539011905
9.3875817031372044,0.1472743993676855,1.0471169150268753,0.8528830849731248,-0.0942150440003580,-0.0060766539544664,9.3985515302653990,7.1864096494957428,-4.3303148553705988,1.1821419326638938
9.4870862335576120,0.1374875387636455,1.0373034644052135,0.8626965355947869,-0.0866125732771268,-0.0821150832689657,9.4985362001636826,7.1259072017270757,-4.2734352883653965,1.1961137683824050
9.5867882775100934,0.1299773310099096,1.0296648550253742,0.8703351449746259,-0.0777945587376756,-0.0152756663040681,9.5985207029068924,7.0656916747761365,-5.5992121412547506,1.2102044291477332
9.6864498611686454,0.1219467697920652,1.0216402713383379,0.8783597286616622,-0.0835579119211765,0.0594371017692084,9.6985053075758323,6.9860095060198022,-5.4617387980694545,1.2244353899947493
9.7860588001490587,0.1132878425558775,1.0129456550862330,0.8870543449137670,-0.0896801479657467,0.0636789840555048,9.7984898951165391,6.9073981654628058,-5.4247587808838116,1.2388284877724722
9.8856145678714196,0.1040376120234623,1.0036967505280192,0.8963032494719807,-0.0962917458028465,-0.0036709245918327,9.8984744821872042,6.8284233087082162,-5.1096972280226316,1.2533867123764653
9.9851003834066283,0.0940623239417398,0.9936056773744620,0.9063942877333770,-0.0889460759091476,-0.0743396447191831,9.9984591503369700,6.7531905140852064,-5.0612624659945009,1.2681102451545754
10.0847812263204375,0.0862756539008215,0.9856564249239121,0.9143411792635200,-0.0814261079829175,-0.0040491536232245,10.0984436625092737,6.6778354578600929,-5.5854544038445697,1.2829988340652290
10.1844057405866195,0.0777977025502170,0.9772647778431670,0.9227304874154523,-0.0881363702689508,0.0670371594955545,10.1984282588322870,6.5936763337728008,-5.5845239539798106,1.2980663859602661
10.2839731886590897,0.0686739970606293,0.9681368771448328,0.9318560310866150,-0.0948314743815826,0.0671878748228289,10.2984128512329409,6.5084433539806437,-5.6181314595451459,1.3133287396531741
