# x_m,y_m,w_tr_right_m,w_tr_left_m,psi,kappa,s,velocity,acceleration,time
-0.0653651745460111,0.1186268567752217,0.8815802358488803,1.0184197641511197,3.1133673728665672,-0.0020812966272985,0.0155585234210963,8.0000000000000000,0.0000000000000000,0.0000000000000000
-0.1656395038334805,0.1214578797023077,0.8789941350097366,1.0210058649902636,3.1131585890832176,-0.0031148811258480,0.1158223591255245,8.0000000000000000,0.0000000000000000,0.0125392856435693
-0.2658795513034862,0.1243298325256939,0.8760080605347734,1.0239919394652268,3.1127425418356420,-0.0041335753192025,0.2160487371729087,8.0000000000000000,0.0000000000000000,0.0250744332480358
-0.3660862130081796,0.1272423946248827,0.8728450233430115,1.0271549766569885,3.1123296825580451,-0.0041030086629415,0.3162384199529953,8.0000000000000000,0.0000000000000000,0.0376055557960039
-0.4662603849997143,0.1301952453793764,0.8703738611468296,1.0296261388531704,3.1119200253775943,-0.0040722457344508,0.4163921781146686,8.0000000000000000,0.0000000000000000,0.0501327662183256
-0.5664029633302408,0.1331880641686776,0.8667958787523050,1.0332041212476950,3.1115135842624508,-0.0040412887953603,0.5165273193413726,8.0000000000000000,0.0000000000000000,0.0626561773943685
-0.6665148440519112,0.1362205303722885,0.8637674502871674,1.0362325497128326,3.1111103730203893,-0.0040101401336205,0.6166128214546914,8.0000000000000000,0.0000000000000000,0.0751759021522918
-0.7665969232168808,0.1392923233697117,0.8607339243641791,1.0392660756358210,3.1107104052974388,-0.0039788020631219,0.7166647666950019,8.0000000000000000,0.0000000000000000,0.0876920532693249
-0.8666500968772991,0.1424031225404496,0.8575952595324031,1.0424047404675971,3.1103136945765444,-0.0039472769233208,0.8166839675881099,8.0000000000000000,0.0000000000000000,0.1002047434720517
-0.9666752610853185,0.1455526072640045,0.8545781719312329,1.0454218280687673,3.1099202541762478,-0.0039155670788605,0.9166712523222759,8.0000000000000000,0.0000000000000000,0.1127140854367003
-1.0666733118930924,0.1487404569198789,0.8512461490603478,1.0487538509396523,3.1095300972493884,-0.0038836749191729,1.0166274664955079,8.0000000000000000,0.0000000000000000,0.1252201917894376
-1.1666451453527737,0.1519663508875753,0.8479919445130120,1.0520080554869879,3.1091432367818270,-0.0038516028580929,1.1165534749019983,8.0000000000000000,0.0000000000000000,0.1377231751066685
-1.2665916575165135,0.1552299685465960,0.8448605263512503,1.0551394736487496,3.1087596855911861,-0.0038193533334491,1.2164501633487188,8.0000000000000000,0.0000000000000000,0.1502231479153395
-1.3665137444364632,0.1585309892764434,0.8416107148528069,1.0583892851471932,3.1083794563256175,-0.0037869288066410,1.3163184404932773,8.0000000000000000,0.0000000000000000,0.1627202226932480
-1.4664123021647770,0.1618690924566200,0.8381960033496014,1.0618039966503987,3.1080025614625884,-0.0037543317622583,1.4161592396941645,8.0000000000000000,0.0000000000000000,0.1752145118693569
-1.5662882267536062,0.1652439574666282,0.8348869244653278,1.0651130755346725,3.1076290133076849,-0.0037215647076487,1.5159735208645946,8.0000000000000000,0.0000000000000000,0.1877061278241116
-1.6661424142551053,0.1686552636859704,0.8313881020548948,1.0686118979451054,3.1072588239934449,-0.0036886301724733,1.6157622723212162,8.0000000000000000,0.0000000000000000,0.2001951828897647
-1.7659757607214226,0.1721026904941491,0.8279299043532804,1.0721419930619207,3.1068920054782092,-0.0036555307083029,1.7155265126189743,8.0000000000000000,0.0000000000000000,0.2126817893507026
-1.8657891622047136,0.1755859172706666,0.8255765405599760,1.0767613040152479,3.1065285695449933,-0.0036222688881738,1.8152672923635345,8.0000000000000000,0.0000000000000000,0.2251660594437795
-1.9655835147571294,0.1791046233950253,0.8289629918425456,1.0870558201592124,3.1061685278003859,-0.0035888473061472,1.9149856959926179,8.0000000000000000,0.0000000000000000,0.2376481053586535
-2.0653597144308211,0.1826584882467277,0.8416924173464473,1.1066405983241177,3.1058118916734649,-0.0035552685768698,2.0147138092436720,8.0000000000000000,0.0000000000000000,0.2501280392381287
-2.1651186572779446,0.1862471912052763,0.8581192275149248,1.1306272329513816,3.1054586724147413,-0.0035215353351094,2.1143911265109905,8.0000000000000000,0.0000000000000000,0.2626059731785019
-2.2648612393506498,0.1898704116501735,0.8602657446647209,1.1397342553352792,3.1051088810951235,-0.0034876502353235,2.2140493835722599,8.0000000000000000,0.0000000000000000,0.2750820192299124
-2.3645883567010881,0.1935278289609215,0.8569064684602549,1.1430935315397452,3.1047625286049030,-0.0034536159511910,2.3136898026906376,8.0000000000000000,0.0000000000000000,0.2875562893966979
-2.4643009053814144,0.1972191225170229,0.8527514732053818,1.1472485267946180,3.1044196256527674,-0.0034194351751335,2.4133136476401340,8.0000000000000000,0.0000000000000000,0.3000288956377540
-2.5639997814437776,0.2009439716979801,0.8490427795632387,1.1509572204367613,3.1040801827648359,-0.0033851106178730,2.5129222251459709,8.0000000000000000,0.0000000000000000,0.3124999498668976
-2.6636858809403328,0.2047020558832955,0.8453551270443243,1.1546448729556757,3.1037442102837147,-0.0033506450079478,2.6125168862370614,8.0000000000000000,0.0000000000000000,0.3249695639532358
-2.7633600999232315,0.2084930544524715,0.8415708507919452,1.1584291492080547,3.1034117183675827,-0.0033160410912477,2.7120990275021728,8.0000000000000000,0.0000000000000000,0.3374378497215376
-2.8630233344446263,0.2123166467850105,0.8380547133821952,1.1619452866178048,3.1030827169892925,-0.0032813016305208,2.8116700922414259,8.0000000000000000,0.0000000000000000,0.3499049189526109
-2.9626764805566697,0.2161725122604151,0.8338067256249663,1.1661932743750338,3.1027572159355072,-0.0032464294048906,2.9112315715046839,8.0000000000000000,0.0000000000000000,0.3623708833836832
-3.0623204343115127,0.2200603302581875,0.8299559890050856,1.1700440109949144,3.1024352248058502,-0.0032114272093894,3.0107850050084117,8.0000000000000000,0.0000000000000000,0.3748358547087863
-3.1619560917613079,0.2239797801578302,0.8261715301220649,1.1738284698779349,3.1021167530120861,-0.0031762978544651,3.1103319819225357,8.0000000000000000,0.0000000000000000,0.3872999445791453
-3.2615843489582081,0.2279305413388455,0.8220492222934350,1.1779507777065650,3.1018018097773208,-0.0031410441654677,3.2098741415187888,8.0000000000000000,0.0000000000000000,0.3997632646035718
-3.3612061019543664,0.2319122931807361,0.8181127553829254,1.1818872446170745,3.1014904041352356,-0.0031056689821661,3.3094131736719650,8.0000000000000000,0.0000000000000000,0.4122259263488599
-3.4608222468019347,0.2359247150630041,0.8140703317831570,1.1859296682168428,3.1011825449293342,-0.0030701751582660,3.4089673314687894,8.0000000000000000,0.0000000000000000,0.4246880413401878
-3.5604336795530651,0.2399674863651523,0.8101161390820787,1.1898838609179212,3.1008782408122233,-0.0030345655608791,3.5085021359138784,8.0000000000000000,0.0000000000000000,0.4371497210615215
-3.6600412962599078,0.2440402864666827,0.8059843949863201,1.1940156050136799,3.1005775002449152,-0.0029988430700464,3.6080388038444831,8.0000000000000000,0.0000000000000000,0.4496110769560236
-3.7596459929746198,0.2481427947470980,0.8019467381999534,1.1980532618000466,3.1002803314961529,-0.0029630105782222,3.7075792114750339,8.0000000000000000,0.0000000000000000,0.4620722204264659
-3.8592486657493481,0.2522746905859005,0.7978031489930411,1.2021968510069592,3.0999867426417653,-0.0029270709897567,3.8071252856944753,8.0000000000000000,0.0000000000000000,0.4745332628356433
-3.9588502106362489,0.2564356533625926,0.7938425592686840,1.2061574407313163,3.0996967415640442,-0.0028910272203945,3.9066790035575893,8.0000000000000000,0.0000000000000000,0.4869943155067953
-4.0584515236874728,0.2606253624566768,0.7893809830323480,1.2106190169676521,3.0994103359511480,-0.0028548821967576,4.0062423915690673,8.0000000000000000,0.0000000000000000,0.4994554897240271
-4.1580535009551731,0.2648434972476556,0.7852747415228041,1.2147252584771961,3.0991275332965307,-0.0028186388558547,4.1058175247509023,8.0000000000000000,0.0000000000000000,0.5119168967327370
-4.2576570384915025,0.2690897371150312,0.7811530592490716,1.2188469407509286,3.0988483408983916,-0.0027823001445259,4.2054065254833608,8.0000000000000000,0.0000000000000000,0.5243786477400457
-4.3572630323486106,0.2733637614383062,0.7767717834656150,1.2232282165343851,3.0985727658591626,-0.0027458690189391,4.3050115621096374,8.0000000000000000,0.0000000000000000,0.5368408539152293
-4.4568723785786526,0.2776652495969829,0.7726421765034910,1.2273578234965090,3.0983008150850071,-0.0027093484441069,4.4046348472940862,8.0000000000000000,0.0000000000000000,0.5493036263901566
-4.5564859732337775,0.2819938809705637,0.7687627513926121,1.2299035014535811,3.0980324952853504,-0.0026727413933093,4.5042786361235985,8.0000000000000000,0.0000000000000000,0.5617670762597277
-4.6561047123661421,0.2863493349385511,0.7462566330340346,1.2187180573958578,3.0977678129724415,-0.0026360508476073,4.6039452239415404,8.0000000000000000,0.0000000000000000,0.5742313145823181
-4.7557294920278945,0.2907312908804475,0.7219348676636126,1.2030875709282256,3.0975067744609284,-0.0025992797953114,4.7035802430816043,8.0000000000000000,0.0000000000000000,0.5866964523802236
-4.8553612082711908,0.2951394281757555,0.7070129101267810,1.1970760522989339,3.0972493858674723,-0.0025624312314713,4.8032900997018126,8.0000000000000000,0.0000000000000000,0.5991626006401106
-4.9550007571481816,0.2995734262039771,0.7006762569039977,1.1993237430960024,3.0969956531103726,-0.0025255081573482,4.9030292699186546,8.0000000000000000,0.0000000000000000,0.6116298703134672
-5.0546490347110167,0.3040329643446151,0.6961420586096376,1.2038579413903625,3.0967455819092331,-0.0024885135798462,5.0028001711174266,8.0000000000000000,0.0000000000000000,0.6240983723170583
-5.1543069370118531,0.3085177219771718,0.6914914665161193,1.2085085334838810,3.0964991777846471,-0.0024514505110661,5.1026052467565632,8.0000000000000000,0.0000000000000000,0.6365682175333853
-5.2539753601028396,0.3130273784811496,0.6870442460532123,1.2129557539467877,3.0962564460579003,-0.0024143219677411,5.2024469624568059,8.0000000000000000,0.0000000000000000,0.6490395168111444
-5.3536552000361306,0.3175616132360509,0.6825209011820114,1.2174790988179889,3.0960173918507148,-0.0023771309706924,5.3023278017440969,8.0000000000000000,0.0000000000000000,0.6615123809656920
-5.4533473528638767,0.3221201056213781,0.6782022678701323,1.2217977321298679,3.0957820200850077,-0.0023398805443430,5.4022502614331103,8.0000000000000000,0.0000000000000000,0.6739869207795098
-5.5530527146382322,0.3267025350166336,0.6733259198106043,1.2266740801893958,3.0955503354826792,-0.0023025737161717,5.5022168466380750,8.0000000000000000,0.0000000000000000,0.6864632470026749
-5.6527721814113452,0.3313085808013199,0.6687081301666625,1.2312918698333375,3.0953223425654270,-0.0022652135161909,5.6022300653971397,8.0000000000000000,0.0000000000000000,0.6989414703533295
-5.7525066492353734,0.3359379223549395,0.6640747207359760,1.2359252792640243,3.0950980456545856,-0.0022278029764415,5.7022924228962486,8.0000000000000000,0.0000000000000000,0.7114217015181571
-5.8522570141624675,0.3405902390569946,0.6594331172931287,1.2405668827068714,3.0948774488709883,-0.0021903451304523,5.8024064152781074,8.0000000000000000,0.0000000000000000,0.7239040511528567
-5.9520241722447773,0.3452652102869878,0.6548698723688324,1.2451301276311679,3.0946605561348619,-0.0021528430127172,5.9025745230216273,8.0000000000000000,0.0000000000000000,0.7363886298826223
-6.0518090195344563,0.3499625154244214,0.6506236473270647,1.2493763526729353,3.0944473711657405,-0.0021152996582002,6.0027992038768341,8.0000000000000000,0.0000000000000000,0.7488755483026246
-6.1516124520836577,0.3546818338487978,0.6458893064892406,1.2541106935107595,3.0942378974824059,-0.0020777181017879,6.1030828853400756,8.0000000000000000,0.0000000000000000,0.7613649169784935
-6.2514353659445341,0.3594228449396196,0.6406955926470083,1.2593044073529915,3.0940321384028580,-0.0020401013777780,6.2034279566541022,8.0000000000000000,0.0000000000000000,0.7738568464468037
-6.3512786571692379,0.3641852280763891,0.6358390937043574,1.2641609062956427,3.0938300970443056,-0.0020024525193866,6.3035634680653159,8.0000000000000000,0.0000000000000000,0.7863514472155624
-6.4511432218099198,0.3689686626386087,0.6310493672229676,1.2689506327770326,3.0936317763231829,-0.0019647745582099,6.4040192006650676,8.0000000000000000,0.0000000000000000,0.7988488297646980
-6.5510299559187350,0.3737728280057809,0.6262882209904695,1.2737117790095305,3.0934371789551953,-0.0019270705237136,6.5045425926146185,8.0000000000000000,0.0000000000000000,0.8113491045465530
-6.6509397555478298,0.3785974035574080,0.6219331187588729,1.2780668812411273,3.0932463074553866,-0.0018893434427255,6.6051358093793651,8.0000000000000000,0.0000000000000000,0.8238523819863754
-6.7508735167493628,0.3834420686729925,0.6172492024700149,1.2827507975299854,3.0930591641382343,-0.0018515963389386,6.7058008363631023,8.0000000000000000,0.0000000000000000,0.8363587724828171
-6.8508321355754864,0.3883065027320369,0.6124734804815698,1.2875265195184304,3.0928757511177647,-0.0018138322323911,6.8065374053913255,8.0000000000000000,0.0000000000000000,0.8488683864084277
-6.9508165080783453,0.3931903851140434,0.6067842996411913,1.2932157003588087,3.0926960703077011,-0.0017760541389580,6.9073426219840837,8.0000000000000000,0.0000000000000000,0.8613813341101533
-7.0508275303101025,0.3980933951985146,0.6019913022730724,1.2980086977269276,3.0925201234216297,-0.0017382650698768,7.0082131672213102,8.0000000000000000,0.0000000000000000,0.8738977259098403
-7.1508660983229007,0.4030152123649527,0.5969865534783984,1.3030134465216019,3.0923479119731923,-0.0017004680312203,7.1091454740248539,8.0000000000000000,0.0000000000000000,0.8864176721047321
-7.2509331081688986,0.4079555159928605,0.5919065040146569,1.3080934959853432,3.0921794372763065,-0.0016626660233937,7.2101357502494814,8.0000000000000000,0.0000000000000000,0.8989412829679769
-7.3510294559002460,0.4129139854617402,0.5867478247136316,1.3132521752863684,3.0920147004454099,-0.0016248620406801,7.3111800036296453,8.0000000000000000,0.0000000000000000,0.9114686687491295
-7.4511560375690946,0.4178903001510940,0.5818892788268994,1.3181107211731009,3.0918537023957215,-0.0015870590707299,7.4122740682347832,8.0000000000000000,0.0000000000000000,0.9239999396746582
-7.5513137492275977,0.4228841394404246,0.5767291362670339,1.3232708637329662,3.0916964438435381,-0.0015492600940480,7.5134136320808986,8.0000000000000000,0.0000000000000000,0.9365352059484527
-7.6515034869279095,0.4278951827092345,0.5717972119248501,1.3282027880751501,3.0915429253065501,-0.0015114680835493,7.6145942655422667,8.0000000000000000,0.0000000000000000,0.9490745777523321
-7.7517261467221763,0.4329231093370258,0.5717524617212835,1.3282475382787167,3.0913931471041778,-0.0014736860040651,7.7158114502040043,8.0000000000000000,0.0000000000000000,0.9616181652465533
-7.8519826246625595,0.4379675987033014,0.6103696056359915,1.2896303943640086,3.0912471093579383,-0.0014359168118500,7.8170606077941507,8.0000000000000000,0.0000000000000000,0.9741660785703251
-7.9522738168012026,0.4430283301875632,0.6067494295178394,1.2932886253252271,3.0911048119918330,-0.0013981634541321,7.9183371288326514,8.0000000000000000,0.0000000000000000,0.9867184278423152
-8.0526006191902635,0.4481049831693138,0.6025040350659411,1.2994020107397093,3.0909662547327561,-0.0013604288686357,8.0196364006345195,8.0000000000000000,0.0000000000000000,0.9992753231611672
-8.1529639278818937,0.4531972370280558,0.6028837586370153,1.3105800263551559,3.0908314371109320,-0.0013227159831052,8.1209538343048617,8.0000000000000000,0.0000000000000000,1.0118368746060111
-8.2533646389282413,0.4583047711432913,0.5989292511436594,1.3190189686609661,3.0907003584603725,-0.0012850277148391,8.2222848903649002,8.0000000000000000,0.0000000000000000,1.0244031922369781
-8.3538036483814651,0.4634272648945230,0.5872632573491506,1.3149120911671033,3.0905730179193611,-0.0012473669702654,8.3236251026498831,8.0000000000000000,0.0000000000000000,1.0369743860957172
-8.4542818522937111,0.4685643976612531,0.5809195532501538,1.3190804467498460,3.0904494144309504,-0.0012097366444625,8.4249701001219890,8.0000000000000000,0.0000000000000000,1.0495505662059084
-8.5548001467171346,0.4737158488229841,0.5756865171670886,1.3243134828329115,3.0903295467434972,-0.0011721396206960,8.5263156262437843,8.0000000000000000,0.0000000000000000,1.0621318425737805
-8.6553594277038925,0.4788812977592186,0.5700402843255121,1.3299597156744880,3.0902134134112083,-0.0011345787700158,8.6276575555598782,8.0000000000000000,0.0000000000000000,1.0747183251886276
-8.7559605913061276,0.4840604238494587,0.5652187854321007,1.3347812145678997,3.0901010127947122,-0.0010970569507690,8.7289919071364679,8.0000000000000000,0.0000000000000000,1.0873101240233245
-8.8566045335760002,0.4892529064732072,0.5599286907206130,1.3400713092793872,3.0899923430616596,-0.0010595770081876,8.8303148545096093,8.0000000000000000,0.0000000000000000,1.0999073490348470
-8.9572921505656566,0.4944584250099661,0.5548772120999580,1.3451227879000420,3.0898874021873350,-0.0010221417739799,8.9316227317933485,8.0000000000000000,0.0000000000000000,1.1125101101647865
-9.0580243383272538,0.4996766588392381,0.5530538923527436,1.3469461076472564,3.0897861879552964,-0.0009847540658596,9.0329120355980415,8.0000000000000000,0.0000000000000000,1.1251185173398712
-9.1588019929129434,0.5049072873405256,0.5692378411662896,1.3307621588337104,3.0896886979580396,-0.0009474166871437,9.1340085411206786,8.0000000000000000,0.0000000000000000,1.1377326804724817
-9.2596260103748769,0.5101499898933309,0.5892284189843021,1.3107715810156979,3.0895949295976779,-0.0009101324263444,9.2352869193147438,8.0000000000000000,0.0000000000000000,1.1503527094611701
-9.3604972867652041,0.5154044458771565,0.5839024734464968,1.3160975265535031,3.0895048800866478,-0.0008729040567540,9.3365391682291357,8.0000000000000000,0.0000000000000000,1.1629787141911780
-9.4614167181360820,0.5206703346715048,0.5786244394509407,1.3213755605490596,3.0894185464484316,-0.0008357343360292,9.4377623241221240,8.0000000000000000,0.0000000000000000,1.1756108045349560
-9.5623852005396586,0.5259473356558781,0.5732915967997907,1.3267084032002094,3.0893359255183075,-0.0007986260057978,9.5389535278935771,8.0000000000000000,0.0000000000000000,1.1882490903526797
-9.6634036300280908,0.5312351282097791,0.5678915298634647,1.3321084701365355,3.0892570139441125,-0.0007615817912678,9.6401099962126153,8.0000000000000000,0.0000000000000000,1.2008936814927695
-9.7644729026535266,0.5365333917127100,0.5627086080457625,1.3372913919542375,3.0891818081870328,-0.0007246044008244,9.7412289859522385,8.0000000000000000,0.0000000000000000,1.2135446877924065
-9.8655939144681177,0.5418418055441732,0.5573059005439255,1.3426940994560748,3.0891103045224106,-0.0006876965256442,9.8423077515136352,8.0000000000000000,0.0000000000000000,1.2262022190780513
-9.9667675615240228,0.5471600490836714,0.5519017122933454,1.3480982877066550,3.0890424990405752,-0.0006508608393424,9.9433434946059318,8.0000000000000000,0.0000000000000000,1.2388663851659609
-10.0679947398733862,0.5524878017107065,0.5466246529339361,1.3533753470660639,3.0889783876476837,-0.0006140999975941,10.0443343773393856,8.0000000000000000,0.0000000000000000,1.2515372958627033
-10.1692763455683703,0.5578247428047816,0.5413637049854305,1.3586362950145694,3.0889179660665942,-0.0005774166377184,10.1452893796716292,8.0000000000000000,0.0000000000000000,1.2642150609656773
-10.2706132746611125,0.5631705517453984,0.5386231206266116,1.3613768793733885,3.0888612298377547,-0.0005408133783546,10.2462245623991084,8.0000000000000000,0.0000000000000000,1.2768997902636221
