# x_m,y_m,w_tr_right_m,w_tr_left_m,psi,kappa,s,velocity,acceleration,time
-0.0500819573533992,0.0605268844573881,0.9394727965068126,0.9605272034931875,3.1368511873858393,0.0017941985303003,0.0000000000000000,8.0000000000000000,0.0000000000000000,0.0000000000000000
-0.1017774856349608,0.0607719988944803,0.9391889476460349,0.9608110523539652,3.1369439404693176,0.0027219838784298,0.0516961093835601,8.0000000000000000,0.0000000000000000,0.0064620136729450
-0.1534736537659391,0.0610075262553628,0.9389811881103151,0.9610188118896851,3.1371326209588077,0.0037099745216794,0.1033928140422141,8.0000000000000000,0.0000000000000000,0.0129241017552768
-0.2051704549420976,0.0612331379690514,0.9387444932419722,0.9612555067580280,3.1373275295680827,0.0038280326080089,0.1550901075157859,8.0000000000000000,0.0000000000000000,0.0193862634394732
-0.2568678818173927,0.0614485181352039,0.9385145212983110,0.9614854787016891,3.1375284210372576,0.0039413446865165,0.2067879830441136,8.0000000000000000,0.0000000000000000,0.0258484978805142
-0.3085659265039848,0.0616533635241205,0.9383010038247860,0.9616989961752141,3.1377350501283541,0.0040499114107365,0.2584864335629660,8.0000000000000000,0.0000000000000000,0.0323108041953708
-0.3602645805722310,0.0618473835767433,0.9381409246956043,0.9618590753043958,3.1379471716254050,0.0041537334351686,0.3101854516991842,8.0000000000000000,0.0000000000000000,0.0387731814623980
-0.4119638350506861,0.0620303004046569,0.9379560007474124,0.9620439992525878,3.1381645403345484,0.0042528114148264,0.3618850297651026,8.0000000000000000,0.0000000000000000,0.0452356287206378
-0.4636636804261041,0.0622018487900876,0.9377881719742324,0.9622118280257678,3.1383869110841029,0.0043471460046768,0.4135851597522764,8.0000000000000000,0.0000000000000000,0.0516981449690346
-0.5153641066434400,0.0623617761859042,0.9376259529369730,0.9623740470630271,3.1386140387246222,0.0044367378590897,0.4652858333245436,8.0000000000000000,0.0000000000000000,0.0581607291655679
-0.5670651031058441,0.0625098427156176,0.9374753401396895,0.9625246598603107,3.1388456781289316,0.0045215876313410,0.5169870418104460,8.0000000000000000,0.0000000000000000,0.0646233802263057
-0.6187666586746690,0.0626458211733807,0.9373365536760851,0.9626634463239150,3.1390815841921498,0.0046016959730021,0.5686887761950608,8.0000000000000000,0.0000000000000000,0.0710860970243826
-0.6704687616694627,0.0627694970239887,0.9372097999106260,0.9627902000893741,3.1393215118316826,0.0046770635333256,0.6203910271112469,8.0000000000000000,0.0000000000000000,0.0775488783889059
-0.7221713998679741,0.0628806684028789,0.9370952714605923,0.9629047285394078,3.1395652159872012,0.0047476909586894,0.6720937848303634,8.0000000000000000,0.0000000000000000,0.0840117231037954
-0.7738745605061501,0.0629791461161307,0.9369931471648613,0.9630068528351389,3.1398124516205996,0.0048135788918834,0.7237970392524696,8.0000000000000000,0.0000000000000000,0.0904746299065587
-0.8255782302781369,0.0630647536404658,0.9369035920393806,0.9630964079606196,3.1400629737159225,0.0048747279714061,0.7755007798960525,8.0000000000000000,0.0000000000000000,0.0969375974870066
-0.8772823953362778,0.0631373271232479,0.9368267572190070,0.9631732427809931,3.1403165372792734,0.0049311388307724,0.8272049958873030,8.0000000000000000,0.0000000000000000,0.1034006244859129
-0.9289870412911180,0.0631967153824830,0.9367627798850970,0.9632372201149031,3.1405728973386964,0.0049828120977087,0.8789096759489832,8.0000000000000000,0.0000000000000000,0.1098637094936229
-0.9806921532113984,0.0632427799068190,0.9367117831779421,0.9632882168220580,3.1408318089440281,0.0050297483933062,0.9306148083888979,8.0000000000000000,0.0000000000000000,0.1163268510486122
-1.0323977156240591,0.0632753948555463,0.9366738760928329,0.9633261239071672,3.1410930271667201,0.0050719483311569,0.9823203810880223,8.0000000000000000,0.0000000000000000,0.1227900476360028
-1.0841037125142410,0.0632944470585970,0.9366491533581965,0.9633508466418036,3.1413563070996320,0.0051094125164519,1.0340263814883042,8.0000000000000000,0.0000000000000000,0.1292532976860380
-1.1358101273252823,0.0632998360165460,0.9366376952938755,0.9633623047061246,-3.1415639033227940,0.0051421415449571,1.0857327965801702,8.0000000000000000,0.0000000000000000,0.1357165995725213
-1.1875169429587185,0.0632914739006097,0.9366395676471876,0.9633604323528125,-3.1412972346064665,0.0051701360019618,1.1374396128897744,8.0000000000000000,0.0000000000000000,0.1421799516112218
-1.2392241417742869,0.0632692855526470,0.9367117317703695,0.9632882682296307,-3.1410292387754746,0.0051933964611942,1.1891468164660219,8.0000000000000000,0.0000000000000000,0.1486433520582527
-1.2909317055899221,0.0632332084851589,0.9367616322075695,0.9632383677924307,-3.1407601606540956,0.0052119234836883,1.2408543928673850,8.0000000000000000,0.0000000000000000,0.1551067991084231
-1.3426396156817562,0.0631831928812885,0.9368110294078422,0.9631889705921579,-3.1404902450467707,0.0052257176165202,1.2925623271485553,8.0000000000000000,0.0000000000000000,0.1615702908935694
-1.3943478527841227,0.0631192015948211,0.9368743694954884,0.9631256305045117,-3.1402197367385458,0.0052347793914907,1.3442706038469650,8.0000000000000000,0.0000000000000000,0.1680338254808706
-1.4460563970895521,0.0630412101501842,0.9369516758931689,0.9630483241068313,-3.1399488804955533,0.0052391093238295,1.3959792069691921,8.0000000000000000,0.0000000000000000,0.1744974008711490
-1.4977652282487719,0.0629492067424473,0.9370429591713854,0.9629570408286148,-3.1396779210655401,0.0052387079107734,1.4476881199772966,8.0000000000000000,0.0000000000000000,0.1809610149971621
-1.5494743253707133,0.0628431922373222,0.9371482170268078,0.9628517829731923,-3.1394071031784474,0.0052335756300295,1.4993973257751201,8.0000000000000000,0.0000000000000000,0.1874246657218900
-1.6011836670225026,0.0627231801711628,0.9372678686755782,0.9627321313244219,-3.1391366715470470,0.0052237129382850,1.5511068066945559,8.0000000000000000,0.0000000000000000,0.1938883508368195
-1.6528932312294637,0.0625891967509650,0.9374014635383200,0.9625985364616801,-3.1388668708676217,0.0052091202695525,1.6028165444818501,8.0000000000000000,0.0000000000000000,0.2003520680602313
-1.7046029954751236,0.0624412808543673,0.9375489447851206,0.9624510552148795,-3.1385979458207172,0.0051897980335074,1.6545265202839541,8.0000000000000000,0.0000000000000000,0.2068158150354943
-1.7563129367012051,0.0622794840296498,0.9377102570896704,0.9622897429103298,-3.1383301410719362,0.0051657466137477,1.7062367146349453,8.0000000000000000,0.0000000000000000,0.2132795893293682
-1.8080230313076284,0.0621038704957351,0.9378853320337672,0.9621146679662329,-3.1380637012728108,0.0051369663659372,1.7579471074425670,8.0000000000000000,0.0000000000000000,0.2197433884303209
-1.8597332551525165,0.0619145171421878,0.9383443659030550,0.9621961898366541,-3.1377988710617259,0.0051034576160227,1.8096576779749149,8.0000000000000000,0.0000000000000000,0.2262072097468644
-1.9114435835521879,0.0617115135292148,0.9405354077912432,0.9639825472954745,-3.1375358950649117,0.0050652206582242,1.8613684048472838,8.0000000000000000,0.0000000000000000,0.2326710506059105
-1.9631539912811617,0.0614949618876651,0.9455304210611609,0.9685459201159390,-3.1372750178975082,0.0050222557530389,1.9130792660092311,8.0000000000000000,0.0000000000000000,0.2391349082511539
-2.0148644525721542,0.0612649771190297,0.9532876554754720,0.9758448014679389,-3.1370164841646950,0.0049745631252260,1.9647902387318654,8.0000000000000000,0.0000000000000000,0.2455987798414832
-2.0665749411160821,0.0610216867954419,0.9637432997664687,0.9858156508144702,-3.1367605384628945,0.0049221429616855,2.0165012995954106,8.0000000000000000,0.0000000000000000,0.2520626624494263
-2.1182854300620586,0.0607652311596771,0.9768140540330332,0.9983754667110118,-3.1365074253810472,0.0048649954092512,2.0682124244770557,8.0000000000000000,0.0000000000000000,0.2585265530596320
-2.1699958920173978,0.0604957631251529,0.9872793463916014,1.0083040039551951,-3.1362573895019690,0.0048031205725203,2.1199235885391441,8.0000000000000000,0.0000000000000000,0.2649904485673930
-2.2217062990476135,0.0602134482759291,0.9897687793835822,1.0102312206164179,-3.1360106754037744,0.0047365185115818,2.1716347662177142,8.0000000000000000,0.0000000000000000,0.2714543457772143
-2.2734166226764136,0.0599184648667075,0.9900624255787301,1.0099375744212700,-3.1357675276613906,0.0046651892396203,2.2233459312114268,8.0000000000000000,0.0000000000000000,0.2779182414014283
-2.3251268338857090,0.0596110038228322,0.9903684019152695,1.0096315980847306,-3.1355281908481483,0.0045891327206515,2.2750570564709243,8.0000000000000000,0.0000000000000000,0.2843821320588655
-2.3768369031156085,0.0592912687402893,0.9906864845612118,1.0093135154387882,-3.1352929095374487,0.0045083488670894,2.3267681141886309,8.0000000000000000,0.0000000000000000,0.2908460142735789
-2.4285468002644177,0.0589594758857072,0.9910164329226689,1.0089835670773311,-3.1350619283045233,0.0044228375372529,2.3784790757890382,8.0000000000000000,0.0000000000000000,0.2973098844736298
-2.4802564946886445,0.0586158541963564,0.9913579885756472,1.0086420114243528,-3.1348354917282744,0.0043325985329558,2.4301899119195078,8.0000000000000000,0.0000000000000000,0.3037737389899385
-2.5319659552029923,0.0582606452801495,0.9917108738549625,1.0082891261450375,-3.1346138443931983,0.0042376315969750,2.4819005924416113,8.0000000000000000,0.0000000000000000,0.3102375740552014
-2.5836751500803645,0.0578941034156412,0.9920747899657587,1.0079252100342413,-3.1343972308914019,0.0041379364105095,2.5336110864230510,8.0000000000000000,0.0000000000000000,0.3167013858028814
-2.6353840470518630,0.0575164955520287,0.9924494144195258,1.0075505855804741,-3.1341858958247011,0.0040335125906491,2.5853213621301840,8.0000000000000000,0.0000000000000000,0.3231651702662730
-2.6870926133067892,0.0571281013091509,0.9928343974971926,1.0071656025028075,-3.1339800838068106,0.0039243596877647,2.6370313870211857,8.0000000000000000,0.0000000000000000,0.3296289233776482
-2.7388008154926431,0.0567292129774891,0.9932293572831499,1.0067706427168501,-3.1337800394656243,0.0038104771829887,2.6887411277398772,8.0000000000000000,0.0000000000000000,0.3360926409674846
-2.7905086197151205,0.0563201355181667,0.9936338725539686,1.0063661274460314,-3.1335860074455759,0.0036918644855891,2.7404505501102516,8.0000000000000000,0.0000000000000000,0.3425563187637815
-2.8422159915381218,0.0559011865629494,0.9940474723673079,1.0059525276326922,-3.1333982324101015,0.0035685209303430,2.7921596191317413,8.0000000000000000,0.0000000000000000,0.3490199523914677
-2.8939228959837426,0.0554726964142447,0.9944696204346865,1.0055303795653137,-3.1332169590441823,0.0034404457750240,2.8438682989752269,8.0000000000000000,0.0000000000000000,0.3554835373719034
-2.9456292975322746,0.0550350080451026,0.9949521447043151,1.0050478552956850,-3.1330424320569779,0.0033076381977868,2.8955765529798487,8.0000000000000000,0.0000000000000000,0.3619470691224811
-2.9973351601222138,0.0545884770992150,0.9954021432444551,1.0045978567555449,-3.1328748961845498,0.0031700972946019,2.9472843436506491,8.0000000000000000,0.0000000000000000,0.3684105429563311
-3.0490404471502526,0.0541334718909162,0.9958557610767526,1.0041442389232473,-3.1327145961926721,0.0030278220767224,2.9989916326570500,8.0000000000000000,0.0000000000000000,0.3748739540821313
-3.1007451214712778,0.0536703734051825,0.9963172478777906,1.0036827521222094,-3.1325617768797285,0.0028808114681847,3.0506983808322232,8.0000000000000000,0.0000000000000000,0.3813372976040279
-3.1524491453983838,0.0531995752976323,0.9967861717273834,1.0032138282726164,-3.1324166830796942,0.0027290643033386,3.1024045481733906,8.0000000000000000,0.0000000000000000,0.3878005685216738
-3.2041524807028576,0.0527214838945263,0.9972617113078336,1.0027382886921663,-3.1322795596652035,0.0025725793243741,3.1541100938430437,8.0000000000000000,0.0000000000000000,0.3942637617303805
-3.2558550886141839,0.0522365181927672,0.9977430032653507,1.0022569967346495,-3.1321506515507025,0.0024113551789917,3.2058149761711587,8.0000000000000000,0.0000000000000000,0.4007268720213948
-3.3075569298200524,0.0517451098599000,0.9982286381061346,1.0017713618938655,-3.1320302036956744,0.0022453904180621,3.2575191526584257,8.0000000000000000,0.0000000000000000,0.4071898940823032
-3.3592579644663463,0.0512477032341118,0.9987154911444508,1.0012845088555491,-3.1319184611079542,0.0020746834933240,3.3092225799804966,8.0000000000000000,0.0000000000000000,0.4136528224975621
-3.4109581521571468,0.0507447553242318,0.9991918895171203,1.0008081104828797,-3.1318156688471133,0.0018992327552680,3.3609252139933208,8.0000000000000000,0.0000000000000000,0.4201156517491651
-3.4626574519547400,0.0502367358097314,0.9997290758642625,1.0002709241357375,-3.1317220720279160,0.0017190364509833,3.4126270097395861,8.0000000000000000,0.0000000000000000,0.4265783762174483
-3.5143558223796019,0.0497241270407241,1.0004294306594137,0.9995705693405863,-3.1316379158238541,0.0015340927221358,3.4643279214562694,8.0000000000000000,0.0000000000000000,0.4330409901820337
-3.5660532214104168,0.0492074240379657,1.0008471930284215,0.9991528069715786,-3.1315634454707419,0.0013443996030817,3.5160279025833874,8.0000000000000000,0.0000000000000000,0.4395034878229234
-3.6177496064840593,0.0486871344928540,1.0013441520710762,0.9986558479289238,-3.1314989062703784,0.0011499550190242,3.5677269057739043,8.0000000000000000,0.0000000000000000,0.4459658632217380
-3.6694449344956102,0.0481637787674289,1.0018573984700756,0.9981426015299244,-3.1314445435942693,0.0009507567843551,3.6194248829049021,8.0000000000000000,0.0000000000000000,0.4524281103631128
-3.7211391617983427,0.0476378898943727,1.0023775744307279,0.9976224255692721,-3.1314006028874011,0.0007468026010535,3.6711217850899787,8.0000000000000000,0.0000000000000000,0.4588902231362473
-3.7728322442037325,0.0471100135770097,1.0029017277068968,0.9970982722931031,-3.1313673296720737,0.0005380900572415,3.7228175626929594,8.0000000000000000,0.0000000000000000,0.4653521953366199
-3.8245241369814535,0.0465807081893062,1.0034283822521468,0.9965716177478533,-3.1313449695517726,0.0003246166259502,3.7745121653429154,8.0000000000000000,0.0000000000000000,0.4718140206678644
-3.8762147948593757,0.0460505447758710,1.0039565430232855,0.9960434569767146,-3.1313337682150832,0.0001063796639416,3.8262055419505363,8.0000000000000000,0.0000000000000000,0.4782756927438170
-3.9279041720235708,0.0455201070519547,1.0044854047604905,0.9955145952395096,-3.1313339714396449,-0.0001166235892695,3.8778976407258945,8.0000000000000000,0.0000000000000000,0.4847372050907368
-3.9795922221183115,0.0449899914034504,1.0050142452589077,0.9949857547410925,-3.1313458250961306,-0.0003443960121371,3.9295884091976170,8.0000000000000000,0.0000000000000000,0.4911985511497021
-4.0312788982460619,0.0444608068868930,1.0055423798226044,0.9944576201773955,-3.1313695751522470,-0.0005769406017529,3.9812777942334976,8.0000000000000000,0.0000000000000000,0.4976597242791872
-4.0829641529674916,0.0439331752294598,1.0060691395588153,0.9939308604411847,-3.1314054676767613,-0.0008142604742301,4.0329657420626095,8.0000000000000000,0.0000000000000000,0.5041207177578262
-4.1346479383014660,0.0434077308289703,1.0066978590857547,0.9933021409142453,-3.1314537488435246,-0.0010563588648592,4.0846521982989037,8.0000000000000000,0.0000000000000000,0.5105815247873630
-4.1863302057250502,0.0428851207538857,1.0072603867453938,0.9927396132546062,-3.1315146649355063,-0.0013032391281204,4.1363371079663631,8.0000000000000000,0.0000000000000000,0.5170421384957954
-4.2380109061735061,0.0423660047433100,1.0077775737596326,0.9922224262403674,-3.1315884623488186,-0.0015549047373792,4.1880204155257239,8.0000000000000000,0.0000000000000000,0.5235025519407155
-4.2896899900402969,0.0418510552069889,1.0082914281132693,0.9917085718867307,-3.1316753875967258,-0.0018113592844003,4.2397020649028070,8.0000000000000000,0.0000000000000000,0.5299627581128509
-4.3413674071770849,0.0413409572253103,1.0088011658173346,0.9911988341826653,-3.1317756873136342,-0.0020726064785439,4.2913819995184825,8.0000000000000000,0.0000000000000000,0.5364227499398103
-4.3930431068937272,0.0408364085493045,1.0093060166714241,0.9906939833285761,-3.1318896082590433,-0.0023386501457252,4.3430601623202989,8.0000000000000000,0.0000000000000000,0.5428825202900374
-4.4447170379582834,0.0403381196006438,1.0098052176218522,0.9901947823781478,-3.1320173973214613,-0.0026094942270852,4.3947364958158257,8.0000000000000000,0.0000000000000000,0.5493420619769782
-4.4963891485970109,0.0398468134716424,1.0102980081502793,0.9897019918497206,-3.1321593015222633,-0.0028851427773350,4.4464109421077147,8.0000000000000000,0.0000000000000000,0.5558013677634643
-4.5480593864943648,0.0393632259252572,1.0107836270202981,0.9892163729797019,-3.1323155680194890,-0.0031655999628098,4.4980834429305334,8.0000000000000000,0.0000000000000000,0.5622604303663167
-4.5997276987930018,0.0388881053950867,1.0070990390557140,0.9845790878162752,-3.1324864441115645,-0.0034508700591995,4.5497539396893965,8.0000000000000000,0.0000000000000000,0.5687192424611746
-4.6513940320937719,0.0384222129853720,0.9941009413136307,0.9707144231060338,-3.1326721772409423,-0.0037409574488902,4.6014223735004158,8.0000000000000000,0.0000000000000000,0.5751777966875520
-4.7030583324557300,0.0379663224709961,0.9827060622445918,0.9584218225671037,-3.1328730149976352,-0.0040358666180008,4.6530886852330307,8.0000000000000000,0.0000000000000000,0.5816360856541288
-4.7547205453961254,0.0375212202974841,0.9739428123472246,0.9487816293119754,-3.1330892051226504,-0.0043356021530337,4.7047528155542082,8.0000000000000000,0.0000000000000000,0.5880941019442760
-4.8063806158904097,0.0370877055810034,0.9678785081757864,0.9418629863460791,-3.1333209955112911,-0.0046401687371078,4.7564147049745911,8.0000000000000000,0.0000000000000000,0.5945518381218239
-4.8580384883722285,0.0366665901083636,0.9645670959681614,0.9377215275439711,-3.1335686342163265,-0.0049495711458019,4.8080742938965830,8.0000000000000000,0.0000000000000000,0.6010092867370729
-4.9096941067334336,0.0362586983370163,0.9638248105384042,0.9361751894615959,-3.1338323694510049,-0.0052638142425745,4.8597315226644486,8.0000000000000000,0.0000000000000000,0.6074664403330561
-4.9613474143240675,0.0358648673950553,0.9642129811249616,0.9357870188750386,-3.1341124495919055,-0.0055829029737880,4.9113863316164084,8.0000000000000000,0.0000000000000000,0.6139232914520510
-5.0129983539523737,0.0354859470812165,0.9645864286391136,0.9354135713608865,-3.1344091231816069,-0.0059068423632046,4.9630386611388140,8.0000000000000000,0.0000000000000000,0.6203798326423517
-5.0646468678847993,0.0351227998648783,0.9649289347451684,0.9350710652548317,-3.1347226389311564,-0.0062356375060348,5.0146884517224040,8.0000000000000000,0.0000000000000000,0.6268360564653005
-5.1162928978459838,0.0347763008860607,0.9652316258612763,0.9347683741387238,-3.1350532457223252,-0.0065692935625275,5.0663356440206684,8.0000000000000000,0.0000000000000000,0.6332919555025835
-5.1679363850187681,0.0344473379554262,0.9655623826693461,0.9344376173306540,-3.1354011926096348,-0.0069078157510321,5.1179801789103863,8.0000000000000000,0.0000000000000000,0.6397475223637983
-5.2195772700441943,0.0341368115542794,0.9658749762422812,0.9341250237577189,-3.1357667288221318,-0.0072512093405207,5.1696219975543407,8.0000000000000000,0.0000000000000000,0.6462027496942926
-5.2712154930214989,0.0338456348345670,0.9661685219682504,0.9338314780317497,-3.1361501037648969,-0.0075994796425858,5.2212610414662484,8.0000000000000000,0.0000000000000000,0.6526576301832810
-5.3228509935081192,0.0335747336188780,0.9664421255275154,0.9335578744724847,-3.1365515670202666,-0.0079526320028530,5.2728972525779518,8.0000000000000000,0.0000000000000000,0.6591121565722440
