# x_m,y_m,w_tr_right_m,w_tr_left_m,psi,kappa,s,velocity,acceleration,time
0.0227996178090433,-0.1137470690544675,0.8890408180481706,0.7985610307301485,-2.8247750969426466,0.2800261939406457,0.0000000000000000,3.4268236654250130,-3.7815037408190957,0.0000000000000000
-0.0720294532616859,-0.1448378400402154,0.9362968482038354,0.7800189457459834,-2.7968296770479686,0.4294084202525948,0.0995559936007321,3.3148702149700697,-2.1897143873914393,0.0296055374073738
-0.1649720781281780,-0.1811768107210606,1.0361569316376562,0.7620115857584503,-2.7390695628216117,0.5980563051274629,0.2056100083826806,3.2482801003527144,-2.0290929051227478,0.0600159484640789
-0.2555822256500225,-0.2229891965726834,1.1500070837342258,0.7421732680498604,-2.6774658883213105,0.6377572282453271,0.3133922023144200,3.1853333417353928,-1.8511832223789821,0.0910380660114830
-0.3433508423311264,-0.2704730575617783,1.2301611567622075,0.7086044080811781,-2.6117845903810215,0.6800544199185999,0.4288641114926734,3.1268017676640216,-1.6450959004688139,0.1226565321707384
-0.4276996420409725,-0.3237913472232569,1.3164116423224150,0.6600043741430340,-2.5417422663452962,0.7254965354308628,0.5399310015767375,3.0738524744701325,-1.3954371736762745,0.1548426759565203
-0.5079742341044534,-0.3830618255383174,1.4096825169087916,0.6057983340273223,-2.4669955480341015,0.7747545336015424,0.6518957315743376,3.0282143729025606,-1.0797152973451936,0.1875479115833874
-0.5834365774016951,-0.4483441626201849,1.4855739569689359,0.5674445203001235,-2.3871273921414415,0.8286551653350996,0.7722851977366086,2.9924256136157510,-0.6801046597294037,0.2206943895251254
-0.6532567897161088,-0.5196233442966106,1.5088789488374688,0.5628501787301026,-2.3016298051853856,0.8867207883688956,0.8860983315009997,2.9696620235271198,-0.2576054892691571,0.2541651057788394
-0.7165045876059265,-0.5967880430428594,1.4699258476840353,0.5549081194332885,-2.2101815602974595,0.9401089800388617,1.0005633656681956,2.9609944831539430,0.0000000000000000,0.2878116728522632
-0.7721913277180807,-0.6795700164874452,1.4165631702937733,0.5500019458102670,-2.1140384003800472,0.9694908827679688,1.1256039330736549,2.9609944831539430,0.0000000000000000,0.3215061206779221
-0.8195247768206277,-0.7673949891047690,1.3794035708056229,0.5651915173512014,-2.0167320530537864,0.9634539910900511,1.2430578687029044,2.9609944831539430,0.0529283773312101,0.3552002521131298
-0.8581520472316175,-0.8593845136743283,1.3510899731082133,0.5861696193735062,-1.9217921715971853,0.9337006309624040,1.3624950646557128,2.9627773630786600,0.3039294535295962,0.3888850165932555
-0.8880602151012158,-0.9545697678197499,1.3260546933332653,0.5949409381872822,-1.8304178544255487,0.9002210256382243,1.4993871383347261,2.9729947615714849,0.5432183540677807,0.4225026813972688
-0.9093278050263780,-1.0520524812217753,1.3120443642392761,0.5910928304064248,-1.7421538795249880,0.8724643416857538,1.6443217341862162,2.9911699772123317,0.6939761795031758,0.4559610789362056
-0.9220559434309339,-1.1510147513518092,1.3179263413660232,0.5812564021023184,-1.6563148626457442,0.8513069178085628,1.7981496343578438,3.0142302762123330,0.7653793539328481,0.4891903160211303
-0.9263574431579178,-1.2507006776870129,1.3464541328349089,0.5715510240472764,-1.5722703710481101,0.8362780032645936,1.9829046449410928,3.0394606849433603,0.7741951470871932,0.5221548957440908
-0.9223498458507137,-1.3503996790937600,1.4002851189239791,0.5667205712450615,-1.4894287257051011,0.8270592840735137,2.1990697836566979,3.0647706094758664,0.7315819344737337,0.5548468140901711
-0.9101514387287365,-1.4494311730986291,1.4690796623496205,0.5679405282504819,-1.4072228643567661,0.8234647333818771,2.3885817229443411,3.0884969326303158,0.6451236467752033,0.5872783464126812
-0.8898798340083379,-1.5471302566901246,1.5132741057769423,0.5714698270266687,-1.3250981446363497,0.8254254980509985,2.5657416141881231,3.1092690750402969,0.5201542752114753,0.6194770458617177
-0.8616528315888499,-1.6428340776029551,1.5074560462633564,0.5706208784944165,-1.2425012121535826,0.8329843754994988,2.7120687605551761,3.1259167995442301,0.3606132597727101,0.6514824052277727
-0.8255915661552622,-1.7358686338543359,1.4576063527014382,0.5622723050075483,-1.1588689024767058,0.8455983053800468,2.8492007458962094,3.1374064255912844,0.1765060671937607,0.6833437573430444
-0.7818259675605499,-1.8255357487303503,1.3769483645985825,0.5522804415664366,-1.0737563015242730,0.8571404507157880,2.9670858388021508,3.1430147741793828,0.0327021685249435,0.7151180112101472
-0.7305265480655002,-1.9111148947127881,1.2865903443853992,0.5500028764606051,-0.9878224942632983,0.8496190955627227,3.0909283998856059,3.1440527523759445,0.1014577128890751,0.7468583588195111
-0.6720703504371106,-1.9919766150240443,1.2041221804921487,0.5636982643073469,-0.9042102797528333,0.8101050081081262,3.2013309165870649,3.1472709292740482,0.4756552768593628,0.7785777501448620
-0.6072385593413614,-2.0678278106979979,1.1348975861363702,0.5975223348551015,-0.8261570739144357,0.7500941327066469,3.3095912057022492,3.1623153751687703,0.9988797514582732,0.8102066348154094
-0.5369155937731537,-2.1386236712786983,1.0749633639418736,0.6443445369905366,-0.7545145727873241,0.6869507723688857,3.4159709089787489,3.1936794201583658,1.4933849815508329,0.8416058547353321
-0.4619113008548997,-2.2044448475573630,1.0200029241570749,0.6891641253544656,-0.6890576541856652,0.6263855754968781,3.5207092791693149,3.2400059288468492,1.9244307175798938,0.8726269974820435
-0.3829431920828623,-2.2654589119231230,0.9708702988193314,0.7258606799990195,-0.6294984642959816,0.5683574033376000,3.6240281886143424,3.2987465090407668,2.3152890283480829,0.9031506113785149
-0.3006436991584063,-2.3219035978615628,0.9293106941389732,0.7598568083084504,-0.5756197601649067,0.5122309155049014,3.7237229522788713,3.3680618973561338,2.6893339676966268,0.9330887260012160
-0.2155673593185815,-2.3740734222909388,0.8943778552672836,0.7942097088850337,-0.5272602447213242,0.4575033357231671,3.8254124137447691,3.4468278382431654,3.0645757375151788,0.9623769965667690
-0.1281979066521240,-2.4223088830716066,0.8657711652574567,0.8255084163606120,-0.4843028390258386,0.4037785067676952,3.9261261072782143,3.5344465932762850,3.4558726235516497,0.9909678236625166
-0.0389553030388537,-2.4669876508238442,0.8460332488156410,0.8524620354751219,-0.4466651737412795,0.3507473682678403,4.0260219729264142,3.6307187387648208,3.8764066068790308,1.0188253739762765
0.0517972448160835,-2.5085173238932357,0.8349141036042064,0.8760102595050597,-0.4142917431891062,0.2981729893806666,4.1247161954169647,3.7357564771431075,4.3387345975331550,1.0459220511390612
0.1437462355695542,-2.5473294179977648,0.8270852689510173,0.8951602391843788,-0.3871473739274451,0.2458784886296062,4.2236767806307078,3.8499258983806897,4.8556063948925798,1.0722360416980816
0.2366207500586500,-2.5838743375623410,0.8190291438442575,0.9086382315240694,-0.3652117827615085,0.1937368664946599,4.3221459014767918,3.9738099119356920,5.4406691327142411,1.0977496446304180
0.3301852275124345,-2.6186171230327462,0.8100464370598750,0.9179421865787926,-0.3484750696922065,0.1416620568549909,4.4203662377472552,4.1081863905387603,6.1091417829430403,1.1224481652214011
0.4242321280499964,-2.6520338014665397,0.7990060246146312,0.9263036897272602,-0.3369340586335869,0.0896006538627451,4.5183215099025675,4.2540179965227907,6.8785266145815882,1.1463192114608578
0.5185744832198969,-2.6846081880362491,0.7859301551219571,0.9350891178340099,-0.3305894394692586,0.0375239431411312,4.6161206125956822,4.4124515316758526,7.7694190140651971,1.1693522742125819
0.6130383498436407,-2.7168289994287180,0.7717441928218635,0.9437013354639167,-0.3294436980548205,-0.0145800348921350,4.7139376657447860,4.5848256468931856,-6.2178773828215759,1.1915385039557942
0.7074551939879618,-2.7491871484088324,0.7566764080044471,0.9523190559775687,-0.3334998418213724,-0.0667145685650061,4.8119368125967226,4.4474083806070501,-6.2980252465511910,1.2136388539346767
0.8016542404753884,-2.7821730945597429,0.7412404345075956,0.9631968918593904,-0.3427609430868648,-0.1188826096186005,4.9101596728805328,4.3037496732611125,-5.5194316092270768,1.2364489732533641
0.8954548283496977,-2.8162741302422254,0.7264365092253056,0.9788885750640629,-0.3572305283156951,-0.1710953992158543,5.0090879400659016,4.1737879412879959,-4.8236692026148038,1.2599951898159272
0.9886588135894795,-2.8519714833440135,0.7124695848426089,0.9995346478419156,-0.3769138432260566,-0.2233813906447844,5.1091633536463545,4.0568018545191968,-4.1918240738851456,1.2842477000638073
1.0810430567293865,-2.8897371189616754,0.6988751551268398,1.0236658302575543,-0.4018200228086324,-0.2757954685670369,5.2109411771185625,3.9523295703538937,-3.6060499257718828,1.3091705695172655
1.1723520249446222,-2.9300301193006213,0.6852283347066860,1.0506127189951719,-0.4319651958680977,-0.3284285126181704,5.3149603502409368,3.8601958593051182,-3.0485523719184733,1.3347203297660934
1.2622905259301538,-2.9732925129409655,0.6696162639468234,1.0805584265429757,-0.4673765624151911,-0.3814173607697246,5.4217236473459556,3.7805561588355054,-2.5004354280252490,1.3608441061536038
1.3505165753865533,-3.0199444087850829,0.6489748312204563,1.1144642127252118,-0.5080974842766697,-0.4349555143960249,5.5386178598646101,3.7139619099225105,-1.9402604932276311,1.3874771670063644
1.4366343843228437,-3.0703782596358140,0.6245633484044615,1.1547801139439784,-0.5541936951050364,-0.4893049157852678,5.6535972064139042,3.6614533673717382,-1.3420628443608955,1.4145397922229528
1.5201874335451464,-3.1249520432110001,0.6011937321944109,1.2002728776232729,-0.6057607357989849,-0.5448115141793205,5.7821598034868051,3.6246894337698228,-0.6890099535657739,1.4419333928701883
1.6006515963843484,-3.1839810704440148,0.5793862471610696,1.2350851595278614,-0.6629332622985102,-0.6008058772031123,5.9263002112629541,3.6056698300109629,-0.0957941535939422,1.4695376439560099
1.6774282136267358,-3.2477281178091335,0.5598852380603325,1.2307096049938202,-0.7256730477387032,-0.6473868992730943,6.0584757012830295,3.6030176306291630,0.0000000000000000,1.4972240870456597
1.7498683143466651,-3.3163594618927874,0.5500101100408343,1.1744570049287895,-0.7921389874215961,-0.6547660474278482,6.1935450614998500,3.6030176306291630,0.0000000000000000,1.5249200173414073
1.8175176983620265,-3.3897190860389190,0.5553105702286343,1.0876554855087246,-0.8563506485327776,-0.6019609615735206,6.3042425045929997,3.6030176306291630,0.6855016864802256,1.5526162869973501
1.8805753899127422,-3.4670671912929079,0.5778837037851997,1.0014705854102002,-0.9122813337838735,-0.5093674634856847,6.4153616264030937,3.6219545900333241,1.8178348884312423,1.5802412509874384
1.9396182834921032,-3.5475272032809024,0.6172391755505195,0.9320624183217553,-0.9580173284283569,-0.4066750720392747,6.5172211358739807,3.6717015025103463,3.0174539683060035,1.6076072745980607
1.9953513724815690,-3.6303184401657771,0.6649223763584428,0.8799281383064637,-0.9934544175881497,-0.3037392449124584,6.6164285384889121,3.7528244886271094,4.2222301349455726,1.6344918557611350
2.0485514566760252,-3.7147626810990175,0.7121184651865092,0.8365881783161400,-1.0186460630290086,-0.2011778814067787,6.7136114104958278,3.8634819430173684,5.4971198169477269,1.6607001511059092
2.1000464744755050,-3.8002593534838778,0.7579364891249684,0.7912594426750379,-1.0336119583777634,-0.0987491512002643,6.8093899348042219,4.0029731113948595,6.9176639701000555,1.6860754700042599
2.1506968130431736,-3.8862600943598831,0.8040316821461908,0.7402842185462717,-1.0383578392089801,0.0036458618659376,6.9043712877265833,4.1718900385115036,-5.4620084219026648,1.7104936735837843
2.2013784134518186,-3.9722423802094093,0.8518325964024851,0.6914335682145739,-1.0328841880501844,0.1060482485645387,6.9991731475265020,4.0391045339486800,-5.3198209629678637,1.7348044205299722
2.2529666998278040,-4.0576826993596553,0.9035408782283439,0.6528478578903114,-1.0171890693841190,0.2085027413890486,7.0944682818491183,3.9054393748182350,-4.0032617235306107,1.7599302960173071
2.3063204856210260,-4.1420297294551407,0.9606101959727513,0.6219730175085587,-0.9912645679802234,0.3111205038992959,7.1910444754948948,3.8017581774583573,-2.7489078897342405,1.7858294763657849
2.3622650114078581,-4.2246779752353660,1.0238843792357566,0.5932505214160168,-0.9550870936753810,0.4136086751451616,7.2898730479354450,3.7288966109680839,-1.5477840344088438,1.8123351176651439
2.4215731682955681,-4.3049423022180662,1.0937641374299127,0.5670228422738713,-0.9087077332005391,0.5113526873295963,7.3876384547916301,3.6872395717218049,-0.5601754289495503,1.8392491045781756
2.4849277042563238,-4.3820473940227211,1.1592759236399985,0.5500211896793650,-0.8530243456558146,0.5888360635623581,7.4993391998632370,3.6720471843258018,-0.0347011273191452,1.8663698717715753
2.5527837802360862,-4.4552178184063420,1.1869630741180368,0.5500000000000002,-0.7911841075643964,0.6281290999799610,7.6123776372565146,3.6711040251879892,0.0000000000000000,1.8935493673867585
2.6251636180086986,-4.5239155644700180,1.1539839062470321,0.5636758117563783,-0.7276607943317126,0.6307039397108547,7.7447239055233421,3.6711040251879892,0.0000000000000000,1.9207321676632556
2.7017439546625925,-4.5878986864143947,1.0860762295326534,0.5863052340451270,-0.6653065692077624,0.6155841259130388,7.8714658894776948,3.6711040251879892,0.2037698025801977,1.9479151953563814
2.7821081543032649,-4.6470610086544575,1.0220503435152686,0.6171756941966737,-0.6047997860168968,0.5976881477704225,8.0165509055533164,3.6766389876295142,0.4206463181284120,1.9750780152219336
2.8658539277404516,-4.7013325452053083,0.9750087649726416,0.6463278687004451,-0.5460162223141385,0.5814415838874031,8.1599519843426886,3.6880387512842936,0.5914468076279678,2.0021786058214199
2.9526042723230290,-4.7506608039990050,0.9432488400571031,0.6716029582444965,-0.4887511141319218,0.5671714994380106,8.2850832978274962,3.7040080796384656,0.7185908740680091,2.0291790531113763
3.0420047523186864,-4.7950069143031504,0.9219887721690452,0.6943533255124583,-0.4328149211819006,0.5547360042558634,8.4061588923840684,3.7233183146102502,0.8096397032971067,2.0560514163275512
3.1337208259469298,-4.8343425252459591,0.9045769346067942,0.7038267123464773,-0.3780311668163892,0.5440154480600320,8.5230781015562620,3.7449560693632145,0.8703487426204163,2.0827765814409327
3.2274353021104747,-4.8686472434072741,0.8877551081150509,0.7041719332096715,-0.3242341661512629,0.5349106974479040,8.6362000246658788,3.7680778111214739,0.9051183952772767,2.1093426470029346
3.3228459015525953,-4.8979065542392242,0.8731822909425005,0.7038894757847165,-0.2712672085676817,0.5273399194174253,8.7460929990760174,3.7919737892069811,0.9173449066247179,2.1357435888136322
3.4196629200881490,-4.9221101432359635,0.8646984526530221,0.7029371839766777,-0.2189809265793412,0.5212366623624464,8.8533946164253585,3.8160399510324390,0.9096678515939924,2.1619781726126606
3.5176069820239566,-4.9412505610439359,0.8636153191616848,0.7027960582438652,-0.1672318605431435,0.5165481901762372,8.9559469067250621,3.8397558165315728,0.8841556739581156,2.1880490791062526
3.6164068709762032,-4.9553221871342412,0.8673629191558959,0.7016302546893665,-0.1158811593814901,0.5132342926046052,9.0609184518340200,3.8626670562591485,0.8424433562409553,2.2139622077581431
3.7157974242522145,-4.9643204560889194,0.8765615059605703,0.6988494273496781,-0.0647933822819484,0.5112664184922204,9.1649930335817746,3.8843717006448997,0.7858366532903553,2.2397261291244401
3.8155174757534351,-4.9682413206875529,0.8921974857505830,0.6962119483561212,-0.0138353720877937,0.5106271115327441,9.2666996034236213,3.9045091819954743,0.2364422281325859,2.2653516599090606
3.9153078319101753,-4.9670809329510481,0.9109083350069721,0.6933908373758737,0.0371248306008998,0.5113097271707276,9.3700407786675246,3.9105478453629927,-0.6764691577488292,2.2908913590364612
4.0149092645794076,-4.9608355316410773,0.9375006500525271,0.6871735259778443,0.0882190576576551,0.5133184055803797,9.4731028379596385,3.8932461010467514,-0.7168035918969514,2.3164679047193695
4.1140605043937652,-4.9495015313023485,0.9791813520149218,0.6767043661693585,0.1395800939762146,0.5166683147543960,9.5760500933675949,3.8748284610601260,-0.7418571885814130,2.3421620281791653
4.2124962176005774,-4.9330758144032893,1.0339297864629879,0.6642407392465866,0.1913427961773595,0.5213861700350613,9.6790754054991694,3.8556744820188191,-0.7353217341280004,2.3679809854341771
4.3099449488888313,-4.9115562344760395,1.1028764762277354,0.6515416678208233,0.2436452767213177,0.5275110603177028,9.7824541925576654,3.8365949219571669,-0.6982550619947122,2.3939282125813226
4.4061270121982465,-4.8849423457138039,1.1891490995482989,0.6370016149260521,0.2966301872933443,0.5350956489805140,9.8865989360716249,3.8183889460965377,-0.6342965843880405,2.4200017448069540
4.5007523106941276,-4.8532363814330868,1.2855070961699298,0.6178478785917787,0.3504461422693175,0.5442077556780684,9.9921035621884879,3.8017750837142215,-0.5389826125814834,2.4461943222088092
4.5935180662770367,-4.8164445130323790,1.3808670138587653,0.5957974488323933,0.4052493173320664,0.5549325950921142,10.1057821666074705,3.7876005318172998,-0.4065052969072009,2.4724930405088892
4.6841064388336235,-4.7745784334372363,1.4658910872371487,0.5757408302156712,0.4612053190973997,0.5673759237403362,10.2267535203598623,3.7768748296098598,-0.2342790640042233,2.4988781879818593
4.7721820106250119,-4.7276573131298614,1.5218812943321132,0.5611050927721060,0.5184914108658019,0.5813551096799610,10.3664438509052026,3.7706795221231388,-0.0584819779153862,2.5253223242219174
4.8573891111365874,-4.6757102005320306,1.5210737780472525,0.5524717584649774,0.5772367222078435,0.5942073049314009,10.5135415891634878,3.7691314397702467,0.0000000000000000,2.5517934253726340
4.9393562248114389,-4.6187890894042036,1.4592880785719478,0.5500113332929991,0.6370871302432184,0.5983239126781645,10.6693272555606651,3.7691314397702467,0.0000000000000000,2.5782697874205165
5.0177499481300414,-4.5570390115344708,1.3678140910778600,0.5611384475188325,0.6966537473534521,0.5887815517614722,10.7952000747186005,3.7691314397702467,0.1355621362830559,2.6047461858338279
5.0923717121928123,-4.4907787524686098,1.2783425130708792,0.5957197849474003,0.7546002510733006,0.5710640547216175,10.9143550737205288,3.7727189622987845,0.3718121045821688,2.6312102312295642
5.1631004700203764,-4.4203766449689290,1.2009201305369837,0.6495374200017523,0.8106317338526228,0.5525012264509263,11.0275627791136710,3.7825412412484805,0.5950233738439140,2.6576275501620232
5.2298455404284558,-4.3461858627886034,1.1338752109659684,0.7070495966202271,0.8648742655558110,0.5353565848792612,11.1326184450636454,3.7982074402581607,0.7767425999260252,2.6839562621056818
5.2925368598633247,-4.2685384619573510,1.0743844125797419,0.7574764619370529,0.9174846621970435,0.5197169069283764,11.2361577925348985,3.8185615068170224,0.9217936664071746,2.7101606528019051
5.3511215689199298,-4.1877468806784597,1.0212572596814953,0.7990259646071385,0.9686063442828980,0.5054594580383804,11.3407136426722452,3.8425768081756884,1.0366906738774415,2.7362134477318909
5.4055610431471104,-4.1041053584784013,0.9756051733410114,0.8342603961010406,1.0183716561303902,0.4924801790105471,11.4419622407549006,3.8694075780689956,1.1264316260280631,2.7620946199748655
5.4558283804937941,-4.0178913491739872,0.9394676612603950,0.8661564583244176,1.0669032690285092,0.4806882496828946,11.5416093809324831,3.8983517639554117,1.1949102605008639,2.7877900862753608
5.5019062721294523,-3.9293669056992075,0.9137161753078754,0.8956203467777059,1.1143154167253799,0.4700044095967817,11.6426057049531213,3.9288226075535420,1.2451778066571195,2.8132906151480128
5.5437851985551863,-3.8387800243911014,0.8981770335458291,0.9213039486930423,1.1607149641195993,0.4603594405617482,11.7434643810388977,3.9603259867160219,1.2796387851529569,2.8385909208505820
