# x_m,y_m,w_tr_right_m,w_tr_left_m,psi,kappa,s,velocity,acceleration,time
-0.0836244073399939,-0.4453208420719688,1.2840097319941723,0.4855861849358891,-2.8336270197464715,0.5214931455985129,0.1611800495408506,2.7729200949080623,-2.6669895397133216,0.0000000000000000
-0.1619812534743845,-0.4702450461492835,1.3936348043999727,0.4774856575751038,-2.7907470534889667,0.8044979666776385,0.2698240919210187,2.6926747771351609,-0.5149432942700120,0.0300883511457370
-0.2357359330918720,-0.5009916927372856,1.4697332818846536,0.4626361923609161,-2.7031919573633876,1.1139552459757338,0.3915804704110525,2.6773498901233106,-0.3408821707140618,0.0598486901624340
-0.3047722301780485,-0.5371894871863354,1.5462418550494463,0.4219632935599420,-2.6149009271186796,1.1467393849689178,0.4979364900541359,2.6674067028283628,-0.2029730899383778,0.0890176762496774
-0.3689739287185056,-0.5784671348467932,1.6377965753449841,0.3712660469441711,-2.5262766130475081,1.1712224816859405,0.6028857992306296,2.6615924092763747,-0.1022114140838451,0.1176633137268092
-0.4282248126988357,-0.6244533410690201,1.7279056613440993,0.3352034922220420,-2.4376610653137885,1.1880174304053177,0.7216003831061059,2.6587105705674241,-0.0372300557064393,0.1458581952357045
-0.4824086661046305,-0.6747768112033765,1.7773187469986753,0.3553496890158396,-2.3493203569425569,1.1981434994898763,0.8245559132953234,2.6576748680286695,-0.0046956646599140,0.1736771850035733
-0.5314092729214822,-0.7290662506002230,1.7147766873393835,0.3423456313544849,-2.2614369086763606,1.2028666232880119,0.9270067735224874,2.6575456515706919,0.0000000000000000,0.2011954315855077
-0.5751104171349826,-0.7869503646099201,1.6587356535491038,0.3006757272588459,-2.1741094594425743,1.2035314915576611,1.0294915737622419,2.6575456515706919,0.0000000000000000,0.2284869077630511
-0.6133958827307237,-0.8480578585828283,1.6145105421012669,0.3239571853127415,-2.0873596847533280,1.2014104089210274,1.1326887704972066,2.6575456515706919,0.0149802498213905,0.2556210985824669
-0.6461494536942973,-0.9120174378693082,1.5957685569006641,0.3576053579306104,-2.0011439492666039,1.1975838148433371,1.2374555374478082,2.6579506772346564,0.0394274644971265,0.2826584089607061
-0.6732549140112956,-0.9784578078197206,1.5843679334892329,0.3762867107404697,-1.9153685713194157,1.1928574040399837,1.3448064984415833,2.6590148880180720,0.0660685163775812,0.3096500199351609
-0.6945960476673104,-1.0470076737844261,1.5646705714878368,0.3811860924687068,-1.8299071510877241,1.1877138404743706,1.4556427660526328,2.6607981807284085,0.0911677788688830,0.3366415857839382
-0.7100566386479338,-1.1172957411137845,1.5058089306048774,0.3830148402074615,-1.7446188096796380,1.1822940009068799,1.5957839123181463,2.6632629134928365,0.1140248931510044,0.3636767159034600
-0.7195204709387580,-1.1889507151581573,1.4986496864868817,0.3752273278067090,-1.6593664645276585,1.1764028915488409,1.7466110563683355,2.6663555943516983,0.1364199269056590,0.3907995727937196
-0.7228713285253745,-1.2616013012679044,1.5343996358671412,0.3659893824109799,-1.5740344369034744,1.1695374723404339,1.9726345901937394,2.6700740071218183,0.1620221081209873,0.4180566814468523
-0.7199929953933755,-1.3348762047933871,1.6191233714822777,0.3612057569869496,-1.4885447162532177,1.1609360452621598,2.2472276279019732,2.6745201109924563,0.1957573381542201,0.4454980221515294
-0.7107692555283528,-1.4084041310849658,1.6990428879280057,0.3622412500512401,-1.4028711114145209,1.1496502173959471,2.4789217273904773,2.6799385642701035,0.2431308488934034,0.4731774610361059
-0.6950838929158988,-1.4818137854930002,1.7239375426323678,0.3645051961680852,-1.3170503633321884,1.1346396880631384,2.6608797499991574,2.6867401743434289,0.3095208503049844,0.5011525621155560
-0.6728206915416050,-1.5547338733678520,1.7278130453534655,0.3579543778454314,-1.2311891742511758,1.1148867655397541,2.8036926752349673,2.6955092909650751,0.3994888090703286,0.5294838251403428
-0.6438634353910635,-1.6267931000598810,1.6719548977366572,0.3398600299493672,-1.1454661361646052,1.0891258588124559,2.9179168082401952,2.7069944279012081,0.5190830206263820,0.5582334087966678
-0.6080959084498664,-1.6976201709194485,1.5866544375929006,0.3244869650344009,-1.0601900099356616,1.0436069273552546,3.0469157570153111,2.7221669989206267,0.7666710747343346,0.5874629740425310
-0.5654093232184640,-1.7668509608237097,1.4998645635649404,0.3185381440509454,-0.9777804685306672,0.9530561630018957,3.1544853240538120,2.7449780312838583,1.3188129313541814,0.6172163234448623
-0.5159423755609869,-1.8343601997428001,1.4187758687467946,0.3130269736272752,-0.9029112616513824,0.8226904474576172,3.2609573757166559,2.7848975837089354,2.1194970864958558,0.6474856296337901
-0.4601332112421513,-1.9003116275131520,1.3544481697387163,0.3680392125485827,-0.8378501516580696,0.6880239086278718,3.3668057055722005,2.8498923348407619,2.9119480285556714,0.6781508056068705
-0.3984379163571207,-1.9648862988291851,1.2937534362533891,0.4284854383646637,-0.7820216955880861,0.5686748609687512,3.4723536353288558,2.9397305858038343,3.5855027998474216,0.7090024039465675
-0.3313125770010579,-2.0282652683853213,1.2276903345703476,0.4764322484823397,-0.7345628411054799,0.4658930727406494,3.5778020864166411,3.0502511993368930,4.1653157660430340,0.7398267038293516
-0.2592132792691260,-2.0906295908759813,1.1717314532344232,0.5160480035102623,-0.6945980283487287,0.3783793866368271,3.6832538165739575,3.1777638549700762,4.6790556656821041,0.7704396663981696
-0.1825961092564875,-2.1521603209955860,1.1223725265834872,0.5644553407164906,-0.6613104569463815,0.3041188947595964,3.7826893713529257,3.3193023344687362,5.1492885768905099,0.8006890349912289
-0.1019171530583068,-2.2130385134385557,1.0737640857554964,0.6136061782449680,-0.6339760059964603,0.2409373466990637,3.8893466831838195,3.4725567594975701,5.5946207563037138,0.8304512871432299
-0.0176324967697459,-2.2734452228993129,1.0381115749348699,0.6559962711028612,-0.6119745413926978,0.1867803338548909,3.9958513623396770,3.6357847515672952,6.0309636994930811,0.8596271686157692
0.0698017735140321,-2.3335615040722764,1.0105898918503773,0.6997772167527512,-0.5947888989039809,0.1398265250311600,4.1021261159513953,3.8077272778071434,6.4726849935249549,0.8881371273565755
0.1599295716978636,-2.3935684116518687,0.9842394187984130,0.7481870001378624,-0.5819979948009504,0.0985119051413921,4.2080937372437388,3.9875392506501126,6.9336144790307639,0.9159172484381432
0.2522948116865859,-2.4536470003325102,0.9524324084824675,0.7746973949258108,-0.5732678003224203,0.0615115490680480,4.3136951156569552,4.1747374078859449,7.4279501237226482,0.9429158878637953
0.3464414073850361,-2.5139783248086220,0.9196587613883996,0.8102403859907861,-0.5683421842620278,0.0277046104068915,4.4181547795600107,4.3691648827517211,7.9711300200654538,0.9690910063860418
0.4419132726980507,-2.5747434397746236,0.8760290812492187,0.8499872153248352,-0.5670345936405168,-0.0038643839798196,4.5234835295985842,4.5709709233045110,8.4192584299099220,0.9944081245417852
0.5382543215304666,-2.6361233999249376,0.8322813769423225,0.8966580241724996,-0.5692209524530791,-0.0340218204095381,4.6283827613438389,4.7767440272153392,7.7237144784771621,1.0188488880156568
0.6350084677871218,-2.6982992599539855,0.7913588638882659,0.9207693671413865,-0.5748338312886796,-0.0634963185241979,4.7330359546100924,4.9592222922393727,6.9383787970611506,1.0424746014638333
0.7317196253728518,-2.7614520745561855,0.7416720115411980,0.9599947259459397,-0.5838577576217201,-0.0929441452494844,4.8377561666349953,5.1182727440361564,6.0651686339720134,1.0653978889419040
0.8279317081924941,-2.8257628984259608,0.6944395830057969,1.0107061743440529,-0.5963254233094784,-0.1229682882569989,4.9430241751366175,5.2536195735522995,5.1060114698490162,1.0877133162093411
0.9231886301508860,-2.8914127862577312,0.6525991743067981,1.0552028912575355,-0.6123144555762092,-0.1541306245138186,5.0495345941161576,5.3648793528420873,4.0638230818606047,1.1095032749563545
1.0170343051528641,-2.9585827927459181,0.6070226771839401,1.1152317770092741,-0.6319443202906476,-0.1857617298829342,5.1582452340704936,5.4515978676244936,2.9791763769396997,1.1308424211336292
1.1090126471032660,-3.0274539725849432,0.5777646496134545,1.1661299914102321,-0.6550977246137899,-0.2075365283355702,5.2702778591931292,5.5140335795735336,2.1899418610908645,1.1517997945984308
1.1987222038137653,-3.0981698837826319,0.5217121699830771,1.2229635129347187,-0.6794983362244373,-0.2059016016321182,5.3867493810074620,5.5592159003396890,2.1366354160145025,1.1724315390154492
1.2861876593285593,-3.1705816158472704,0.4777370284247492,1.2898235206152930,-0.7019980946132547,-0.1855298220909334,5.5201356214420416,5.6026879712123234,2.6761980119472173,1.1927775795925184
1.3716338066079081,-3.2444029182771654,0.4226977467364541,1.3571300202243830,-0.7215150814680342,-0.1597859722266722,5.6840187395131823,5.6563679166142267,3.3877280298710040,1.2128358656992499
1.4552865951306664,-3.3193467468215103,0.3911475718587317,1.4518364960293855,-0.7379870692425525,-0.1332433237525981,5.8894579564251153,5.7232398626078425,-1.1867647637316228,1.2325753328004985
1.5373719743756875,-3.3951260572294939,0.3367721421350279,1.4780327191759504,-0.7513655719260086,-0.1059940104232701,6.1212488365605262,5.7000274370168080,-5.0322134053400225,1.2521347487019667
1.6181158938218279,-3.4714538052503099,0.3333981895809198,1.3702585097011495,-0.7616053487988710,-0.0780475741238916,6.2922886041388981,5.6010758778036225,-6.0345413843614439,1.2717983740776675
1.6977443029479400,-3.5480429466331489,0.3493470727275119,1.2430075379512056,-0.7686604245180475,-0.0493644994475758,6.4282484061796916,5.4807497456855545,-7.0071099373019523,1.2917379393990511
1.7764831512328789,-3.6246064371272024,0.3943537666306799,1.1342846824364390,-0.7724808171059014,-0.0198650427742651,6.5480354096170794,5.3384914095400378,-7.9326220338395110,1.3120399380002452
1.8545583881554986,-3.7008572324816598,0.4893587386338032,1.0510192565453509,-0.7730100488308227,0.0105606799160405,6.6512161908292748,5.1737873021066019,-7.4424759132336558,1.3328028215374703
1.9321959631946548,-3.7765082884457160,0.5528790588786590,0.9873807491218298,-0.7701835192300548,0.0420410850714643,6.7480941858409293,5.0154300265721892,-6.7289345458125895,1.3540803207703309
2.0096218258292011,-3.8512725607685598,0.6317195094727555,0.9228031321749305,-0.7639278432598866,0.0747094203868904,6.8400974897719840,4.8688861831002974,-6.0642811312079319,1.3758584852738160
2.0870619255379919,-3.9248630051993842,0.7191102387617478,0.8347549136470430,-0.7541612965259201,0.1086871548602896,6.9287149498609697,4.7339587587564722,-5.4375617912413849,1.3981080184706633
2.1647422117998825,-3.9969925774873811,0.7948160677489888,0.7324404973214187,-0.7407955579013352,0.1440635125792552,7.0155582486235346,4.6105917360483240,-4.8392433740892731,1.4207959487314032
2.2428886340937262,-4.0673742333817389,0.8819761453918765,0.6578159399218567,-0.7237389889089951,0.1808702553716806,7.1016378464720207,4.4988535163554335,-4.2612622980564492,1.4438859673676161
2.3217271418983771,-4.1357209286316516,0.9757809344727438,0.6083112187139086,-0.7029017257003929,0.2190511746869680,7.1887760205871718,4.3989140674158058,-3.6971840028703054,1.4673389824484315
2.4014836846926904,-4.2017456189863100,1.0738004182893324,0.5314320809812703,-0.6782028632884249,0.2584265727791377,7.2755492059713296,4.3110135731178589,-3.1425023342058207,1.4911139674720888
2.4823842119555208,-4.2651612601949047,1.1782565530635754,0.4898065138074916,-0.6495799547200463,0.2986544767706236,7.3685488146880509,4.2354199768909426,-2.5951004534113737,1.5151691910447453
2.5646546731657227,-4.3256808080066298,1.2995602555643786,0.4267282314490612,-0.6170008946228100,0.3391925584188557,7.4689229430642259,4.1723727380627249,-2.0559683704058971,1.5394639110219006
2.6485210178021505,-4.3830172181706732,1.3704037415781665,0.4494201910701626,-0.5804779698669611,0.3792625298155399,7.5791753343745443,4.1220083092147037,-1.5784323404118925,1.5639606054132049
2.7342091953436576,-4.4368834464362275,1.2660140695828568,0.4594540432011787,-0.5400844526611248,0.4151752198009667,7.7200701567211230,4.0830671478818878,-1.3355280828583811,1.5886313881485956
2.8219449195466813,-4.4869925519385196,1.1963275808689304,0.4274612099129283,-0.4965088486411942,0.4368164456364232,7.9037986977117534,4.0498841680118352,-1.3296923793846727,1.6134777244375580
2.9118273903402883,-4.5331130818012380,1.1504037277730779,0.4692586244469622,-0.4518206305070653,0.4403540320949546,8.0983429346623748,4.0165779710807872,-1.3777618032196781,1.6385257712244854
3.0036210198152942,-4.5751604185106052,1.1207325637598171,0.4924122420955537,-0.4075616745237221,0.4364158098381760,8.2639350401440286,3.9817942627122096,-1.5635394370493867,1.6637723038887615
3.0970354744862694,-4.6130739555401474,1.1093393237924603,0.5212171369216616,-0.3637603238557485,0.4337809814752446,8.4019785801383584,3.9420081926960395,-1.7446089294239944,1.6892184609049554
3.1917804208677909,-4.6467930863633971,1.0992104005802013,0.5105838466708196,-0.3202062183158754,0.4336894554289529,8.5480484935176424,3.8972465655581683,-1.9007509898959811,1.7148755731568397
3.2875655254744300,-4.6762572044538793,1.0846811739069948,0.4852873900929913,-0.2766838546777552,0.4362329354770698,8.6716343098201296,3.8480599860296825,-2.0308560061116294,1.7407530183298012
3.3841004548207603,-4.7014057032851229,1.0712644056984213,0.4891435411383827,-0.2329721619143084,0.4415163463724150,8.7897937823657522,3.7950470151611704,-2.1340969693088274,1.7668567749274997
3.4810948754213551,-4.7221779763306566,1.0715252280280951,0.4943286300062115,-0.1888438785788416,0.4496603457985781,8.9033019899700125,3.7388505692282918,-2.2098293223564411,1.7931894330686520
3.5782584537907867,-4.7385134170640075,1.0746142032349295,0.4957900672848117,-0.1440648835699121,0.4608013586547363,9.0076105427074964,3.6801558421704033,-2.2575107503563956,1.8197501843737798
3.6753008564436307,-4.7503514189587053,1.0735593700798030,0.4892738628243271,-0.0983936521908406,0.4750885824761232,9.1158011670994377,3.6196892782098860,-2.2607384546113924,1.8465348027641779
3.7719317498944576,-4.7576313754882769,1.0959202425012011,0.4859895203599193,-0.0515810443184452,0.4926770808623109,9.2215510544257278,3.5586511428871219,-2.2124494422239591,1.8735340052585046
3.8678608006578439,-4.7602926801262520,1.1100671060245419,0.4892950270276452,-0.0033706824317070,0.5137157037383033,9.3215301608925980,3.4984794255531808,-2.1288574540050766,1.9007308831557259
3.9627976752483600,-4.7582747263461576,1.1125144003514273,0.4874855996485728,0.0464997554683688,0.5383281875612504,9.4240301654752159,3.4402111623790566,-2.0080970711341664,1.9281015570655751
4.0564520401805808,-4.7515169076215225,1.1528441417254234,0.4802537545578561,0.0982959221762976,0.5665854833255813,9.5251173935412385,3.3849580211444290,-1.8480828858379239,1.9556167315204738
4.1485335619690771,-4.7399586174258728,1.2026934427600475,0.4680829875461372,0.1522823751684470,0.5984673063974969,9.6251764696847371,3.3339048384725776,-1.6466444027835945,1.9832416735958958
4.2387519071284263,-4.7235392492327408,1.2387820752951875,0.4557504472933050,0.2087157740774179,0.6338113906643599,9.7246694087543837,3.2883013689017870,-1.4017863582006527,2.0109364627645223
4.3268167421731967,-4.7021981965156501,1.3196878243201569,0.4484123921026092,0.2678351122765454,0.6722503926678891,9.8242056330975842,3.2494435821233298,-1.1121307725735348,2.0386566546119700
4.4124377336179661,-4.6758748527481346,1.4132341901343788,0.4378246436940564,0.3298484672897142,0.7131393659296367,9.9246064796094871,3.2186399273574797,-0.7776058888116408,2.0663545256946745
4.4953245479773063,-4.6445086114037162,1.5084143999735455,0.4127862772231175,0.3949160017315592,0.7554816795503353,10.0269429423796659,3.1971573615467452,-0.4037507319193198,2.0939810729210140
4.5751868517657908,-4.6080388659559279,1.6227552673019918,0.3846103870264335,0.4631294497083229,0.7975877098544005,10.1444926247759888,3.1860508927723195,-0.0804364612324522,2.1214893048482448
4.6517343114979903,-4.5664050098782951,1.7489679798982383,0.3558253997193427,0.5344400825398701,0.8305854500761476,10.2902528670823123,3.1838502281627079,0.0000000000000000,2.1488483479475162
4.7246825676055622,-4.5195528052949463,1.7832345192570755,0.3560201784178489,0.6075145998245394,0.8385204640525450,10.4729318507062263,3.1838502281627079,0.0000000000000000,2.1760789616763527
4.7938868912766424,-4.4675768713511594,1.6737752911527615,0.3356136770810424,0.6797114340701852,0.8192232605689223,10.6770957475433104,3.1838502281627079,0.1956138659014487,2.2032627274434335
4.8593434350729003,-4.4107220174663695,1.5602102790916779,0.3282119668090767,0.7494449204418280,0.7864376707667666,10.8271693351861327,3.1891726268055227,0.5012824022749514,2.2304714256524667
4.9210545756027244,-4.3492396883678666,1.4738513184463928,0.3748023974200216,0.8164036722794156,0.7492113602470849,10.9510335156293657,3.2028357052002172,0.8144725741714837,2.2577276754882636
4.9790226894745100,-4.2833813287829390,1.3998648461283065,0.4708462952006907,0.8804424307335981,0.7097780340779082,11.0675248973462317,3.2250695918436332,1.1175462346663194,2.2850261841778083
5.0332501532966409,-4.2133983834388768,1.3459629121633241,0.4989327502678179,0.9415161724096386,0.6697831274023331,11.1710523358727389,3.2556036399735095,1.4009987323086788,2.3123485867618889
5.0837393436775127,-4.1395422970629667,1.2912031756950051,0.5304957555681874,0.9996626130703934,0.6305314600418245,11.2733403396811749,3.2938782761078089,1.6589643713851792,2.3396681233550645
5.1304926372255117,-4.0620645143824960,1.2473933020930692,0.5640546150228800,1.0549839126893257,0.5929888143192976,11.3749480295666228,3.3391432760099757,1.8882471730636188,2.3669532180098534
5.1735124105490300,-3.9812164801247580,1.2168363321303859,0.5830010356885506,1.1076295406712466,0.5578177884311116,11.4763247202903536,3.3905358694580268,2.0874753726318263,2.3941703081139356
5.2128010402564584,-3.8972496390170366,1.1792328474564868,0.6069191459585747,1.1577814285500359,0.5254303382628365,11.5778175812540773,3.4471391048518263,2.2564331859533806,2.4212859503561890
5.2483609029561880,-3.8104154357866258,1.1920415391364805,0.6322389304164669,1.2056418683381160,0.4960441657870349,11.6796859795680010,3.5080229503242255,2.3955688759658180,2.4482682894971881
5.2801943752566043,-3.7209653151608078,1.1609139953061347,0.6451687480096359,1.2514241567110824,0.4697350949893779,11.7821183130474836,3.5722714275063070,2.5056526041284433,2.4750880056099960
5.3083038337661037,-3.6291507218668748,1.1787724931348975,0.6578001536228767,1.2953457196582545,0.4464815942677861,11.8817332300059348,3.6389990986019707,2.5875503372004820,2.5017188605759717
5.3326916550930727,-3.5352231006321171,1.2010334002670797,0.6603395349836865,1.3376233320330608,0.4262003306744277,11.9857487891111525,3.7073598335105364,2.6420823372884756,2.5281379543133040
5.3533602158459033,-3.4394338961838193,1.1862205237393608,0.6681593395908469,1.3784700214267993,0.4087732220140197,12.0905383770710912,3.7765502341662249,2.6699407293387525,2.5543257833900834
5.3703118926329845,-3.3420345532492748,1.2095587647776778,0.6676724306676746,1.4180932747201667,0.3940671993141184,12.1961707715395722,3.8458095421052394,2.6716471978206897,2.5802661749418343
5.3835490620627091,-3.2432765165557669,1.2557412262808461,0.6617123794199794,1.4566942194170207,0.3819481121694905,12.2990398102656453,3.9144173767825476,2.6475376410924030,2.6059461504765058
5.3930741007434637,-3.1434112308305888,1.2931210715602486,0.6457115772835548,1.4944675121962012,0.3722901398944778,12.4063117351452341,3.9816902710988940,2.5977652051161075,2.6313557587374818
5.3988893852836402,-3.0426901408010245,1.3085789781182120,0.6216518041006373,1.5316017239081767,0.3649818695465313,12.5145913621022107,4.0469776854101367,2.5223165801157696,2.6564879046999668
