# x_m,y_m,w_tr_right_m,w_tr_left_m,psi,kappa,s,velocity,acceleration,time
0.0309432628867501,-0.0086257887381851,0.9027738761026947,0.7798964560935026,0.0554671515387930,0.2335115286267349,0.0000000000000000,4.3075598039628877,-2.0820328179829986,0.0000000000000000
0.0819622265393587,-0.0057930064365761,0.9042268083594484,0.7757731916405516,0.0435352852335458,0.3498998439658788,0.0510975469837301,4.2827909037495262,0.0000000000000000,0.0118964984602677
0.1327018378096953,-0.0041928992170688,0.9057352277441511,0.7742647722558489,0.0198255198994910,0.4634097665758490,0.1018623822043707,4.2827909037495262,0.0000000000000000,0.0237497120215921
0.1831762541952630,-0.0037861227742494,0.9061223892622956,0.7738776107377043,-0.0033807322926749,0.4553460211961911,0.1523384376815778,4.2827909037495262,0.1479076201469728,0.0355354976486737
0.2333996331935645,-0.0045333328027035,0.9054355716861400,0.7745644283138600,-0.0260300977789583,0.4458086989486186,0.2025673747680190,4.2845252257786530,0.3162199843128790,0.0472612087878527
0.2833861323021031,-0.0063951849970172,0.9036999487776333,0.7763000512223667,-0.0480730982635580,0.4349018394424458,0.2525885361571890,4.2882154554165313,0.5026806245032042,0.0589310267024188
0.3331499090183816,-0.0093323350517764,0.9007787961002116,0.7792212038997883,-0.0694644145638528,0.4227401360933817,0.3024389155289831,4.2940551267702514,0.7051329174119418,0.0705480874544448
0.3827051208399028,-0.0133054386615669,0.8968889587902472,0.7507198249222485,-0.0901630543818430,0.4094456068530185,0.3521531445883779,4.3022110257969626,0.9215631923843568,0.0821145578677761
0.4320659252641701,-0.0182751515209747,0.8927103062570214,0.7084103481242701,-0.1101324280704192,0.3951443666780068,0.4017634969285470,4.3128248120976105,1.1501338590506605,0.0936317130540493
0.4812464797886862,-0.0242021293245857,0.8897093530696079,0.7167964022241543,-0.1293403393679824,0.3799636213110892,0.4512999078726536,4.3260148944276784,1.3892069561249689,0.1051000149619291
0.5302609419109542,-0.0310470277669857,0.8885865611934375,0.7288243861438560,-0.1477589002882196,0.3640289741687750,0.5007900092245604,4.3418784935699106,1.6373589591465401,0.1165191912569298
0.5791234691284770,-0.0387705025427608,0.8880471411813856,0.7436391031683055,-0.1653643808442040,0.3474621088275616,0.5502591776903351,4.3604938281464003,1.8933879764143537,0.1278883137529478
0.6278482189387575,-0.0473332093464967,0.8767195408179437,0.7493729686726077,-0.1821370050854971,0.3303788813278967,0.5997305956190864,4.3819223636513440,2.1563146189748070,0.1392058755901813
0.6764493488392989,-0.0566958038727795,0.8825974226052131,0.7299264477665490,-0.1980607051053400,0.3128878312226528,0.6492253226500830,4.4062110716562355,2.4253778722141512,0.1504698663785196
0.7249410163276042,-0.0668189418161950,0.8923736187233092,0.7223237148418683,-0.2131228443332029,0.2950890992570886,0.6987623768380118,4.4333946540038758,2.7000272485027224,0.1616778445905184
0.7733373789011760,-0.0776632788713291,0.8894840260330309,0.7410591678375205,-0.2273139206815324,0.2770737233980606,0.7483588238530751,4.4634976951813616,2.9799123886800127,0.1728270065829314
0.8216525940575176,-0.0891894707327676,0.8753828362046931,0.7394210896900327,-0.2406272590823124,0.2589232736940283,0.7980298729101492,4.4965367143810964,3.2648711293319628,0.1839142517399508
0.8699008192941319,-0.1013581730950967,0.8908131268816311,0.7079477420814064,-0.2530587017396253,0.2407097797862595,0.8477889781640222,4.5325220965933157,3.5549168833970146,0.1949362433551551
0.9180962121085219,-0.1141300416529021,0.8911271837251061,0.7338376748142501,-0.2646063031354684,0.2224959021696250,0.8976479444087331,4.5714598891263121,3.8502260097346159,0.2058894649944155
0.9662529299981908,-0.1274657321007697,0.8756813790791391,0.7460055297892730,-0.2752700355367403,0.2043352987413380,0.9476170360317204,4.6133534560436651,4.1511256842726025,0.2167702722019489
1.0143851304606410,-0.1413259001332855,0.9034878930006014,0.7373031352376272,-0.2850515095220987,0.1862731409682420,0.9977050882921854,4.6582049880632388,4.4580826384128498,0.2275749395213469
1.0625069709933759,-0.1556712014450354,0.9024844864379717,0.7467210943620241,-0.2939537129207901,0.1683467383824796,1.0479196201129926,4.7060168694799618,4.7716930032105083,0.2382997028993862
1.1106326090938985,-0.1704622917306052,0.9138075361911526,0.7067606650109273,-0.3019807705578528,0.1505862354151543,1.0982669476926998,4.7567929067087684,5.0926733914937392,0.2489407976208285
1.1587762022597117,-0.1856598266845808,0.9179422325229527,0.7407268079917698,-0.3091377263442265,0.1330153502540826,1.1487522983559630,4.8105394251872537,5.4218532636750574,0.2594944919865929
1.2069519079883184,-0.2012244620015484,0.9133276270197720,0.7685760563105192,-0.3154303485384693,0.1156521310484246,1.1993799241644039,4.8672662427407998,5.7601685544858929,0.2699571169959417
1.2551738837772217,-0.2171168533760936,0.8959354478250350,0.7842004857637757,-0.3208649584333385,0.0985097100837810,1.2501532149045882,4.9269875282146698,6.1086564845514424,0.2803250923266914
1.3034562871239246,-0.2332976565028022,0.9225895284362043,0.7646488784609399,-0.3254482822743212,0.0815970413251280,1.3010748101541383,4.9897225543343229,6.4684514396987094,0.2905949489274526
1.3518132755259302,-0.2497275270762606,0.9140108225715790,0.7868300277518493,-0.3291873258839146,0.0649196108683979,1.3521467102007618,5.0554963534753048,6.8407817692126613,0.3007633485442928
1.4002590064807412,-0.2663671207910543,0.9012465896364875,0.8089580764780685,-0.3320892712292047,0.0484801133113271,1.4033703856520543,5.1243402844035089,7.2269673293478576,0.3108271005028833
1.4488076374858603,-0.2831770933417693,0.8768518079927315,0.8202674432234794,-0.3341613940143178,0.0322790898577194,1.4547468856265271,5.1962925171687697,7.6284175779404535,0.3207831760579881
1.4974733260387909,-0.3001181004229915,0.8928277734727780,0.7871999673554033,-0.3354110012878762,0.0163155261466215,1.5062769444587938,5.2713984422694597,8.0466300079475204,0.3306287206068180
1.5462702296370361,-0.3171507977293069,0.8747883300287186,0.8052116699712814,-0.3358453880136487,0.0005874094021852,1.5579610868847351,5.3497110090097495,8.4831886907263296,0.3403610640428827
1.5952125057780990,-0.3342358409553013,0.8573681986395510,0.8240516623780375,-0.3354718115464399,-0.0149077544022339,1.6097997316963248,5.4312909966909917,8.0602373173222368,0.3499777295038814
1.6443143119594819,-0.3513338857955607,0.8424839591903811,0.8451178895879380,-0.3342974829728524,-0.0301724620130426,1.6617932938712097,5.5079109280145104,7.5846555219037981,0.3594836445665626
1.6935898056786884,-0.3684055879446709,0.8296577615745933,0.8370992009906557,-0.3323295743072188,-0.0452087713616657,1.7139422851897337,5.5792604403158288,7.0927347166126617,0.3688907312951909
1.7430531444332216,-0.3854116030972179,0.8254297945419486,0.8156308233274457,-0.3295752405674426,-0.0600178954185279,1.7662474133524135,5.6453626861013815,6.5872224794090233,0.3782104434269202
1.7927184857205831,-0.4023125869477874,0.8214016762780199,0.8474152735820519,-0.3260416557859602,-0.0745998301150892,1.8187096796045239,5.7062493020178406,6.0709339618506402,0.3874535828694978
1.8425999870382781,-0.4190691951909658,0.8130685322247854,0.8745333165535337,-0.3217360620308587,-0.0889530155101190,1.8713304748619368,5.7619611108401907,5.5467424642533238,0.3966303930888874
1.8927118058838075,-0.4356420835213385,0.7939444801976880,0.8897653042997954,-0.3166658305157541,-0.1030740300350846,1.9241116743141864,5.8125487768677484,5.0175693435228776,0.4057506409377061
1.9430680997546759,-0.4519919076334917,0.7749787914863175,0.9050212085136824,-0.3108385338601334,-0.1169573184313820,1.9770557304575118,5.8580734230222626,4.4863728695705269,0.4148236886701269
1.9936830261483849,-0.4680793232220110,0.7753999264566577,0.9098782645226043,-0.3042620285209630,-0.1305949548487928,2.0301657644827156,5.8986072136585816,3.9561356806370820,0.4238585575530156
2.0445707425624384,-0.4838649859814826,0.7986715539578932,0.9112914686772419,-0.2969445463491893,-0.1439764434638658,2.0834456559108419,5.9342339033866542,1.2306361096324887,0.4328639842127848
2.0957454064943395,-0.4993095516064923,0.7836508353561137,0.9279281955404978,-0.2888947941302806,-0.1570885598552034,2.1369001303343009,5.9453089098042229,-2.5403598230686195,0.4418634003122165
2.1472211754415906,-0.5143736757916262,0.7715676038753330,0.9284398363966723,-0.2801220598460712,-0.1699152371892929,2.1905348450830151,5.9223470925013100,-2.1432407847499699,0.4509022054036844
2.1990122069016946,-0.5290180142314698,0.7971288021552615,0.9193674052696593,-0.2706363242475549,-0.1824375019698485,2.2443564725950309,5.9028374253140310,-1.7551969964131811,0.4600050870426016
2.2511326583721551,-0.5432032226206093,0.7878415171454443,0.9391211344483879,-0.2604483761578655,-0.1946334646277512,2.2983727812298120,5.8867538715612859,-1.3755238011729196,0.4691684765570621
2.3035966873504745,-0.5568899566536305,0.7691555491811518,0.9381209367119505,-0.2495699297362404,-0.2064783705117781,2.3525927132209956,5.8740709504089317,-1.0036956339409300,0.4783889067244931
2.3564184513341560,-0.5700388720251194,0.7832580361502801,0.9071204692623499,-0.2380137417340265,-0.2179447168186039,2.4070264594249298,5.8647625445221747,-0.6393663364658387,0.4876630388139277
2.4096121078207022,-0.5826106244296616,0.7783987724266346,0.9272328830198000,-0.2257937265711318,-0.2290024406100418,2.4616855304829874,5.8588006762131943,-0.2831838257454643,0.4969876903774354
2.4631918143076175,-0.5945658695618438,0.7679114616451370,0.9413628726675507,-0.2129250668663487,-0.2395960681864081,2.5165828239808872,5.8561466266141737,-0.0160339391499898,0.5063598697101850
2.5171717282924031,-0.6058652631162511,0.7614302796808753,0.9284214189583053,-0.1994268605166010,-0.2473987124931833,2.5717326871584349,5.8559956261342894,-0.0148438622049307,0.5157774232178932
2.5715658583903349,-0.6164697176216405,0.7729020007354660,0.9082663344999894,-0.1855706727298667,-0.2461796346527863,2.6271508777141324,5.8558551496203712,-0.0465871431573025,0.5252410326195189
2.6263733713847546,-0.6263657489958090,0.7662329397748761,0.9213636737483047,-0.1720733610908529,-0.2341577052161968,2.6828446378456947,5.8554120527067077,-0.4562188783792475,0.5347521741841883
2.6815661751258792,-0.6355868970733187,0.7601671440199480,0.9333491769921836,-0.1594266000946685,-0.2176990017419901,2.7388024358427003,5.8510505295464208,-1.0325646731600762,0.5443123291163594
2.7371132536259606,-0.6441717455513296,0.7629576592239458,0.8988767631796414,-0.1476552920019123,-0.2014340164884472,2.7950089973216290,5.8411230495290516,-1.6141047703190590,0.5539267196484188
2.7929835908972507,-0.6521588781270009,0.7728946883462170,0.8982779723708735,-0.1367360804208524,-0.1857662737601181,2.8514473608130437,5.8255062969890075,-2.1838033561048307,0.5636018986251572
2.8491461709519998,-0.6595868784974921,0.7779246000034253,0.9180800613785979,-0.1266469797267378,-0.1706532386096845,2.9080990208761888,5.8042304783243202,-2.7401518765260242,0.5733444510418896
2.9055699778024606,-0.6664943303599630,0.7675000038763534,0.9214499978157892,-0.1173675005360617,-0.1560501990171605,2.9649440634984829,5.7773318534669276,-3.2819120658318233,0.5831609232921412
2.9622239954608833,-0.6729198174115726,0.7970245534068336,0.8832929506590508,-0.1088787493087815,-0.1419108747148726,3.0219612942335097,5.7448509354085422,-3.8080808949701161,0.5930578728163366
3.0190772079395209,-0.6789019233494806,0.7935463220255583,0.8917233316583596,-0.1011635072001045,-0.1281878721482215,3.0791283595823051,5.7068308763543962,-4.3178568858994382,0.6030419199263556
3.0760985992506233,-0.6844792318708467,0.7937798653651840,0.9031184680889799,-0.0942062926616583,-0.1148330073869335,3.1364218621580453,5.6633160217388516,-4.8106082187113532,0.6131198024883386
3.1332571534064422,-0.6896903266728299,0.7824856544197981,0.9023957983111418,-0.0879934117136287,-0.1017975163446597,3.1938174701975020,5.6143506120101616,-5.2858428777877799,0.6232984342751123
3.1905218544192295,-0.6945737914525904,0.7752656864065378,0.9049117864388606,-0.0825129992829774,-0.0890321691474673,3.2512900219969398,5.5599776112304786,-5.7431809433909491,0.6335849679532453
3.2478616863012362,-0.6991682099072871,0.7900792607848804,0.9035589249602298,-0.0777550545315320,-0.0764873030565189,3.3088136258582561,5.5002376409025473,-6.1823290303764908,0.6439868638567128
3.3052456330647142,-0.7035121657340793,0.8364190666556414,0.9036601128232152,-0.0737114726807007,-0.0641127860921081,3.3663617561352583,5.4351679968047373,-6.6030568002798562,0.6545119659303964
3.3626426787219139,-0.7076442426301270,0.8386836702529733,0.9036847208736943,-0.0703760754733396,-0.0518579214733537,3.4239073459719220,5.3648017257766600,-7.0051754218540214,0.6651685865163491
3.4200218072850870,-0.7116030242925897,0.8576594757097065,0.8608832300202716,-0.0677446420933649,-0.0396713012142142,3.4814228773258109,5.2891667381229297,-7.3885178235701527,0.6759656020225950
3.4773520027664864,-0.7154270944186265,0.8675892410874152,0.8784624049076203,-0.0658149420832401,-0.0275006157195600,3.5388804688717879,5.2082849293401976,-7.7529205658161109,0.6869125619831856
3.5346022491783602,-0.7191550367053968,0.8786538351441943,0.8677516319096962,-0.0645867715517290,-0.0152924250072657,3.5962519623848013,5.1221712819169731,-8.0982071577716965,0.6980198146232957
3.5917415305329641,-0.7228254348500609,0.8885831893460758,0.8340797260744311,-0.0640619937417672,-0.0029918962554692,3.6535090082067865,5.0308329136116257,-8.2695715064513475,0.7092986528310453
3.6487388308425452,-0.7264768725497772,0.8985245254799977,0.8514019104049313,-0.0642445848225364,0.0094574882480121,3.7106231504121587,4.9360572159046257,-7.9812946572554466,0.7207594277494389
3.7055631341193580,-0.7301479335017060,0.9024578492250367,0.8626922553747561,-0.0651406855718328,0.0221142489798743,3.7675659122999350,4.8431092199366690,-7.7087833287828884,0.7324051569148772
3.7621834243756527,-0.7338772014030063,0.9046349149101724,0.7937728776579017,-0.0667586594153096,0.0350392490543939,3.8243088828582934,4.7519331208786797,-7.4501025394126232,0.7442327171366774
3.8185686856236813,-0.7377032599508380,0.9107328399112756,0.8059823620664581,-0.0691091570769806,0.0482960518169310,3.8808238048702708,4.6624869391035846,-7.2034668552043257,0.7562387507854635
3.8746879018756948,-0.7416646928423603,0.9199682674294416,0.8231512609545716,-0.0722051878584709,0.0619512909596705,3.9370826653572579,4.5747422641775524,-6.9672182841898929,0.7684196459974182
3.9305100571439433,-0.7458000837747325,0.9243830382522874,0.8233923898796209,-0.0760621972889735,0.0760750464814134,3.9930577890905377,4.4886841025609900,-6.7398060461966907,0.7807715141471282
3.9860041354406803,-0.7501480164451144,0.9205824329184120,0.7603302608631526,-0.0806981505572260,0.0907412176562209,4.0487219359402875,4.4043108275410248,-6.5197678998882544,0.7932901644527371
4.0411391207781566,-0.7547470745506656,0.9189417388576020,0.7679160899434444,-0.0861336207323051,0.1060278811897324,4.1040484028763027,4.3216342301619868,-6.3057127401033819,0.8059710755907632
4.0958839971686221,-0.7596358417885452,0.9206970880894737,0.7793518190820382,-0.0923918802789521,0.1220176187378773,4.1590111314850020,4.2406796699668732,-6.0963042081603653,0.8188093642239029
4.1502077486243305,-0.7648529018559128,0.9162499451029880,0.7852495416013908,-0.0994989937493966,0.1387977927157042,4.2135848219225025,4.1614863241313680,-5.8902450870872585,0.8317997503876216
4.2040793591575323,-0.7704368384499281,0.9311476223896534,0.7430273684868511,-0.1074839087566133,0.1564607425661252,4.2677450542828508,4.0841075329599619,-5.6862622847320150,0.8449365197456635
4.2574678127804786,-0.7764262352677507,0.9342900438900014,0.7460505952937506,-0.1163785413685043,0.1751038650896158,4.3214684184225884,4.0086112385896042,-5.4830922431100584,0.8582134828173583
4.3103420935054197,-0.7828596760065392,0.9301482851471224,0.7544470120054306,-0.1262178508691352,0.1948295317323852,4.3747326533454647,3.9350805119419405,-5.2794666557530991,0.8716239314086729
4.3626711853446096,-0.7897757443634541,0.9247187750456231,0.7628830737326960,-0.1370398973684184,0.2157447825799060,4.4275167973115446,3.8636141602678782,-5.0740984310704409,0.8851605926538357
4.4144240723102977,-0.7972130240356543,0.9291815123582365,0.7057352589430567,-0.1488858739608354,0.2379607209428483,4.4798013498888194,3.7943274037725478,-4.8656679153802660,0.8988155813058224
4.4655697384147359,-0.8052100987202995,0.9330096112261033,0.7207327119464946,-0.1618001029928993,0.2615915137239779,4.5315684472072748,3.7273526044673808,-4.6528094926563686,0.9125803512140731
4.5160771676701756,-0.8138055521145492,0.9386793642575304,0.7432374441849455,-0.1758299834615624,0.2867528813579631,4.5828020516973549,3.6628400231788545,-4.4340988202887495,0.9264456473089052
4.5659153440888680,-0.8230379679155626,0.9334900703765090,0.7562628409469933,-0.1910258736114749,0.3135599375962425,4.6334881575870712,3.6009585710945955,-4.2080411550798189,0.9404014598859982
4.6150532516830651,-0.8329459298204996,0.9196265612853080,0.7623667954734809,-0.2074408894361668,0.3421242150599305,4.6836150133816004,3.5418965098409312,-3.9730614881935526,0.9544369835600873
4.6634598744650182,-0.8435680215265194,0.9669298767972686,0.7500849347759339,-0.2251305960747723,0.3725496896703562,4.7331733624397092,3.4858620383344081,-3.7274975614234842,0.9685405839380419
4.7111041964469784,-0.8549428267307817,0.9597529497971621,0.7640182929740202,-0.2441525651637948,0.4049275996804202,4.7821567025724079,3.4330836850433597,-3.4695973007193768,0.9826997758412803
4.7579552016411970,-0.8671089291304457,0.9586211157451263,0.7624543356294143,-0.2645657672946351,0.4393298490373757,4.8305615652961862,3.3838104004826675,-3.1975227952919343,0.9969012177637987
4.8039818740599260,-0.8801049124226714,0.9909886107895192,0.7623293558340625,-0.2864297652360728,0.4758007987956798,4.8783878149471134,3.3383112166888136,-2.9093636827090825,1.0111307281400335
4.8491531977154168,-0.8939693603046175,0.9830345800149920,0.7816913667645163,-0.3098036711012926,0.5143472959018308,4.9256389672702081,3.2968743085535448,-2.6031636647459520,1.0253733298407202
4.8934381566199177,-0.9087408564734439,0.9830671796689382,0.7719823722376408,-0.3347448300147839,0.5549268806122405,4.9723225263059003,3.2598052575506622,-2.2769648335716997,1.0396133300008716
4.9368057347856844,-0.9244579846263102,0.9913057095907082,0.7662004181981062,-0.3613071951947484,0.5974342690915967,5.0184503373675309,3.2274242841437801,-1.9288754338414851,1.0538344426546353
4.9792249162249664,-0.9411593284603759,0.9889832161081371,0.7976539380884179,-0.3895393661282307,0.6416864435015245,5.0640389526112779,3.2000621853126483,-1.5571674366910278,1.0680199615072645
5.0206646849500158,-0.9588834716728003,0.9732257446612625,0.8180039015265915,-0.4194822743257205,0.6874070111020597,5.1091100041255268,3.1780546946767823,-1.1604105501916568,1.0821529892840538
5.0610940249730838,-0.9776689979607427,0.9472746619870835,0.8305431117796811,-0.4511665217122163,0.7342109183312979,5.1536905776146131,3.1617349836342190,-0.7405495000198107,1.0962167282252999
5.1004819203064207,-0.9975544910213630,0.9241598399511536,0.8463041672107637,-0.4846094065101387,0.7813191525609675,5.1978135776605514,3.1513834383473061,-0.3539764898124054,1.1101949231827417
5.1387973549622803,-1.0185785345518206,0.9650092155734105,0.8629427244206409,-0.5197878262139213,0.8228076482710444,5.2415180733015951,3.1464705381709219,-0.1078156818385436,1.1240740940253811
5.1760104506401055,-1.0407779685099647,0.9544243704900729,0.8856689166335684,-0.5562233887635797,0.8484724500728759,5.2848496940650627,3.1449854039569161,-0.0166176167824037,1.1378488454222131
5.2121118316050330,-1.0641582084604428,0.9270896537875613,0.9129103462124388,-0.5930471533743149,0.8578167955963566,5.3278606848431975,3.1447581323176004,0.0000000000000000,1.1515253937679628
