# x_m,y_m,w_tr_right_m,w_tr_left_m,psi,kappa,s,velocity,acceleration,time
-0.0325616095131651,-0.0963262235120245,0.9702861022393158,0.8736227892192617,-2.9988930570003065,0.0132332047733297,0.0000000000000000,8.0000000000000000,0.0000000000000000,0.0000000000000000
-0.0822715933611455,-0.1034683629720019,0.9263589434463078,0.8888363162959839,-2.9982284796265439,0.0198412119210420,0.0502204405619091,8.0000000000000000,0.0000000000000000,0.0062775550702386
-0.1319621344840016,-0.1106751384163985,0.9151006843039324,0.8933288726947466,-2.9969003867728570,0.0264326106152133,0.1004308726391996,8.0000000000000000,0.0000000000000000,0.0125538590799000
-0.1816332969017998,-0.1179464111515824,0.9279981431211825,0.8918732370004588,-2.9955743550876295,0.0264032899191118,0.1506314282449369,8.0000000000000000,0.0000000000000000,0.0188289285306171
-0.2312851317202206,-0.1252820745049236,0.9445839127682620,0.8933779942800019,-2.9942497246388720,0.0263870589018446,0.2008222307656109,8.0000000000000000,0.0000000000000000,0.0251027788457014
-0.2809176771305551,-0.1326820538247933,0.9634038345264864,0.8974806750979907,-2.9929258340851086,0.0263839574816205,0.2510033951387441,8.0000000000000000,0.0000000000000000,0.0313754243923430
-0.3305309584097109,-0.1401463064805651,0.9206229201722074,0.9051216627841290,-2.9916020207026817,0.0263940248108280,0.3011750280301882,8.0000000000000000,0.0000000000000000,0.0376468785037735
-0.3801249879202068,-0.1476748218626134,0.9015815150411274,0.9062604915039072,-2.9902776204109047,0.0264172993378967,0.3513372280113062,8.0000000000000000,0.0000000000000000,0.0439171535014133
-0.4296997651101752,-0.1552676213823151,0.9151995268822557,0.9043749351565357,-2.9889519677951615,0.0264538188670475,0.4014900857362793,8.0000000000000000,0.0000000000000000,0.0501862607170349
-0.4792552765133603,-0.1629247584720478,0.9318118448058278,0.9052954396772142,-2.9876243961280053,0.0265036206162301,0.4516336841197436,8.0000000000000000,0.0000000000000000,0.0564542105149679
-0.5287914957491233,-0.1706463185851922,0.9506680405499823,0.9088046000190559,-2.9862942373883250,0.0265667412727828,0.5017680985149919,8.0000000000000000,0.0000000000000000,0.0627210123143740
-0.5783083835224345,-0.1784324191961295,0.9161575407053646,0.9153808227701999,-2.9849608222786763,0.0266432170471456,0.5518933968929401,8.0000000000000000,0.0000000000000000,0.0689866746116175
-0.6278058876238793,-0.1862832098002429,0.8892959879302691,0.9175586740689581,-2.9836234802408104,0.0267330837243003,0.6020096400221112,8.0000000000000000,0.0000000000000000,0.0752512050027639
-0.6772839429296573,-0.1941988719139177,0.9029620823823233,0.9151334381792988,-2.9822815394695290,0.0268363767129696,0.6521168816498389,8.0000000000000000,0.0000000000000000,0.0815146102062299
-0.7267424714015779,-0.2021796190745401,0.9204797665801325,0.9151921478226753,-2.9809343269248929,0.0269531310927068,0.7022151686849218,8.0000000000000000,0.0000000000000000,0.0877768960856152
-0.7761813820870664,-0.2102256968404987,0.9394832990631978,0.9182091976697930,-2.9795811683428974,0.0270833816585397,0.7523045413819678,8.0000000000000000,0.0000000000000000,0.0940380676727460
-0.8256005711191614,-0.2183373827911834,0.9083445562697064,0.9249270288280734,-2.9782213882446733,0.0272271629632605,0.8023850335276373,8.0000000000000000,0.0000000000000000,0.1002981291909547
-0.8749999217165131,-0.2265149865269859,0.8797011950148482,0.9269920431524827,-2.9768543099443159,0.0273845093572170,0.8524566726290277,8.0000000000000000,0.0000000000000000,0.1065570840786285
-0.9243793041833851,-0.2347588496692995,0.8928034326598926,0.9240440422826980,-2.9754792555554115,0.0275554550257710,0.9025194801044263,8.0000000000000000,0.0000000000000000,0.1128149350130533
-0.9737385759096572,-0.2430693458605195,0.9094739811097109,0.9238206736016895,-2.9740955459963456,0.0277400340239253,0.9525734714766659,8.0000000000000000,0.0000000000000000,0.1190716839345832
-1.0230775813708173,-0.2514468807640425,0.9291062673190874,0.9261937640145965,-2.9727025009945089,0.0279382803083483,1.0026186565693014,8.0000000000000000,0.0000000000000000,0.1253273320711627
-1.0723961521279690,-0.2598918920642666,0.9099866785734010,0.9314214315302263,-2.9712994390894591,0.0281502277668013,1.0526550397058660,8.0000000000000000,0.0000000000000000,0.1315818799632333
-1.1216941068278314,-0.2684048494665924,0.8706782717303597,0.9347956197147433,-2.9698856776351512,0.0283759102444294,1.1026826199124231,8.0000000000000000,0.0000000000000000,0.1378353274890529
-1.1709712512027335,-0.2769862546974217,0.8842826379019346,0.9312596006661430,-2.9684605328013456,0.0286153615672986,1.1527013911236459,8.0000000000000000,0.0000000000000000,0.1440876738904557
-1.2202273780706172,-0.2856366415041574,0.9010402715101261,0.9303668616806494,-2.9670233195742637,0.0288686155629015,1.2027113423926803,8.0000000000000000,0.0000000000000000,0.1503389177990850
-1.2694622673350409,-0.2943565756552052,0.9206118765659514,0.9321571979169494,-2.9655733517566247,0.0291357060772579,1.2527124581050189,8.0000000000000000,0.0000000000000000,0.1565890572631274
-1.3186756859851732,-0.3031466549399718,0.9093953080703805,0.9368711746583328,-2.9641099419671675,0.0294166669889674,1.3027047181966138,8.0000000000000000,0.0000000000000000,0.1628380897745767
-1.3678673880957970,-0.3120075091688657,0.8638954331008722,0.9408426183465856,-2.9626324016397501,0.0297115322199219,1.3526880983764902,8.0000000000000000,0.0000000000000000,0.1690860122970613
-1.4170371148273062,-0.3209398001732965,0.8773589783950245,0.9367294862201776,-2.9611400410221567,0.0300203357421599,1.4026625703540823,8.0000000000000000,0.0000000000000000,0.1753328212942603
-1.4661845944257135,-0.3299442218056773,0.8940404158858100,0.9351984981751525,-2.9596321691747516,0.0303431115812452,1.4526281020715528,8.0000000000000000,0.0000000000000000,0.1815785127589441
-1.5153095422226399,-0.3390214999394210,0.9135646445705099,0.9363132192153716,-2.9581080939690665,0.0306798938161073,1.5025846579413091,8.0000000000000000,0.0000000000000000,0.1878230822426636
-1.5644116606353182,-0.3481723924689425,0.9120222681166963,0.9403014535712991,-2.9565671220864624,0.0310307165744570,1.5525321990889926,8.0000000000000000,0.0000000000000000,0.1940665248861241
-1.6134906391666011,-0.3573976893096595,0.8589888702535895,0.9450359198337801,-2.9550085590170352,0.0313956140243040,1.6024706836021760,8.0000000000000000,0.0000000000000000,0.2003088354502720
-1.6625461544049476,-0.3666982123979901,0.8723436146832103,0.9403144356721027,-2.9534317090588487,0.0317746203614149,1.6524000667849894,8.0000000000000000,0.0000000000000000,0.2065500083481237
-1.7115778700244331,-0.3760748156913546,0.8891144454478999,0.9381224540264065,-2.9518358753176743,0.0321677697919101,1.7023203014189656,8.0000000000000000,0.0000000000000000,0.2127900376773707
-1.7605854367847455,-0.3855283851681752,0.9095010656982746,0.9386601833896484,-2.9502203597073953,0.0325750965106300,1.7522313380303161,8.0000000000000000,0.0000000000000000,0.2190289172537895
-1.8095684925311888,-0.3950598388278758,0.9164917768287968,0.9417875607249876,-2.9485844629511844,0.0329966346746657,1.8021331251639066,8.0000000000000000,0.0000000000000000,0.2252666406454883
-1.8585266621946743,-0.4046701266908812,0.8554888142997643,0.9475431161852468,-2.9469274845836688,0.0334324183715636,1.8520256096641643,8.0000000000000000,0.0000000000000000,0.2315032012080205
-1.9074595577917297,-0.4143602307986186,0.8736342111383814,0.9490978473104718,-2.9452487229542319,0.0338824815826984,1.9019087369631931,8.0000000000000000,0.0000000000000000,0.2377385921203991
-1.9563667784244978,-0.4241311652135169,0.8955470354858547,0.9486017978969644,-2.9435474752316084,0.0343468581412735,1.9517824513763236,8.0000000000000000,0.0000000000000000,0.2439728064220404
-2.0052479102807319,-0.4339839760190065,0.9171502384348129,0.9494263955689766,-2.9418230374099719,0.0348255816844843,2.0016466964053552,8.0000000000000000,0.0000000000000000,0.2502058370506694
-2.0541025266337978,-0.4439197413195192,0.9125188939699920,0.9298139833866772,-2.9400747043167073,0.0353186855999714,2.0515014150497537,8.0000000000000000,0.0000000000000000,0.2564376768812192
-2.1029301878426776,-0.4539395712404892,0.8665735895952158,0.9485052389767580,-2.9383017696220475,0.0358262029663467,2.1013465501260509,8.0000000000000000,0.0000000000000000,0.2626683187657564
-2.1517304413519645,-0.4640446079283517,0.8752314200823962,0.9482966315605968,-2.9365035258507812,0.0363481664873179,2.1511820445956928,8.0000000000000000,0.0000000000000000,0.2688977555744616
-2.2005028216918645,-0.4742360255505437,0.8957776341897709,0.9474950379303524,-2.9346792643962485,0.0368846084192232,2.2010078419016046,8.0000000000000000,0.0000000000000000,0.2751259802377006
-2.2492468504781988,-0.4845150302955045,0.9179990250314725,0.9490968951560792,-2.9328282755368416,0.0374355604919167,2.2508238863137207,8.0000000000000000,0.0000000000000000,0.2813529857892151
-2.2979620364123980,-0.4948828603726739,0.8651454794941245,0.9534977130887011,-2.9309498484552252,0.0380010538226249,2.3006301232837294,8.0000000000000000,0.0000000000000000,0.2875787654104662
-2.3466478752815099,-0.5053407860124945,0.8637759928257754,0.9552343375589349,-2.9290432712605217,0.0385811188224401,2.3504264998093074,8.0000000000000000,0.0000000000000000,0.2938033124761634
-2.3953038499581947,-0.5158901094664103,0.8843288747669885,0.9545853547345180,-2.9271078310136982,0.0391757850951934,2.4002129648080750,8.0000000000000000,0.0000000000000000,0.3000266206010094
-2.4439294304007246,-0.5265321650068671,0.9073653651141458,0.9553885431475256,-2.9251428137564193,0.0397850813286598,2.4499894695015456,8.0000000000000000,0.0000000000000000,0.3062486836876932
-2.4925240736529832,-0.5372683189273109,0.8649917873969795,0.9592732227232169,-2.9231475045435946,0.0404090351774393,2.4997559678093202,8.0000000000000000,0.0000000000000000,0.3124694959761650
-2.5410872238444719,-0.5480999695421920,0.8569774056813436,0.9615207172370419,-2.9211211874799408,0.0410476731374364,2.5495124167537933,8.0000000000000000,0.0000000000000000,0.3186890520942242
-2.5896183121903031,-0.5590285471869603,0.8775369360352477,0.9603132193680075,-2.9190631457607852,0.0417010204118272,2.5992587768756010,8.0000000000000000,0.0000000000000000,0.3249073471094501
-2.6381167569911996,-0.5700555142180682,0.8989956368283423,0.9602667231076044,-2.9169726617174305,0.0423691007675679,2.6489950126600945,8.0000000000000000,0.0000000000000000,0.3311243765825118
-2.6865819636335013,-0.5811823650129697,0.9069595047986313,0.9458603493764315,-2.9148490168673904,0.0430519363830976,2.6987210929750862,8.0000000000000000,0.0000000000000000,0.3373401366218858
-2.7350133245891604,-0.5924106259701205,0.8781859150858708,0.9483544665136602,-2.9126914919697398,0.0437495476859684,2.7484369915201112,8.0000000000000000,0.0000000000000000,0.3435546239400139
-2.7834102194157393,-0.6037418555089779,0.8612685904099291,0.9561190996065081,-2.9104993670860058,0.0444619531805345,2.7981426872874700,8.0000000000000000,0.0000000000000000,0.3497678359109337
-2.8317720147564200,-0.6151776440700011,0.8816544547376539,0.9526460572913082,-2.9082719216468167,0.0451891692658147,2.8478381650353124,8.0000000000000000,0.0000000000000000,0.3559797706294140
-2.8800980643399900,-0.6267196141146503,0.9043878769526638,0.9518498130865138,-2.9060084345247139,0.0459312100420809,2.8975234157729837,8.0000000000000000,0.0000000000000000,0.3621904269716230
-2.9283877089808557,-0.6383694201253883,0.8873132274794027,0.9537634787363202,-2.9037081841134755,0.0466880871067373,2.9471984372589266,8.0000000000000000,0.0000000000000000,0.3683998046573658
-2.9766402765790327,-0.6501287486056793,0.8529375106779097,0.9559189316017603,-2.9013704484142897,0.0474598093393694,2.9968632345113471,8.0000000000000000,0.0000000000000000,0.3746079043139184
-3.0248550821201547,-0.6619993180799887,0.8760261928888371,0.9545303141239524,-2.8989945051291275,0.0482463826747100,3.0465178203319199,8.0000000000000000,0.0000000000000000,0.3808147275414900
-3.0730314276754607,-0.6739828790937837,0.8985143051985058,0.9529579760118015,-2.8965796317617660,0.0490478098636010,3.0961622158427486,8.0000000000000000,0.0000000000000000,0.3870202769803436
-3.1211686024018137,-0.6860812142135343,0.8997969152394564,0.9539782285782905,-2.8941251057267925,0.0498640902223208,3.1457964510368686,8.0000000000000000,0.0000000000000000,0.3932245563796086
-3.1692658825416804,-0.6982961380267108,0.8484163475535376,0.9553076092166608,-2.8916302044669937,0.0506952193686837,3.1954205653424612,8.0000000000000000,0.0000000000000000,0.3994275706678077
-3.2173225314231435,-0.7106294971417855,0.8655561469805773,0.9472758519645732,-2.8890942055796085,0.0515411889458184,3.2450346082010877,8.0000000000000000,0.0000000000000000,0.4056293260251360
-3.2653377994599024,-0.7230831701882328,0.8864470265440310,0.9417808695546173,-2.8865163869517465,0.0524019863326513,3.2946386396601297,8.0000000000000000,0.0000000000000000,0.4118298299575162
-3.3133109241512635,-0.7356590678165283,0.9069980084665451,0.9369108829920324,-2.8838960269055409,0.0532775943404877,3.3442327309796633,8.0000000000000000,0.0000000000000000,0.4180290913724579
-3.3612411300821523,-0.7483591326981500,0.9088891038822150,0.9288140246563403,-2.8812324043533861,0.0541679908966621,3.3938169652540253,8.0000000000000000,0.0000000000000000,0.4242271206567532
-3.4091276289231032,-0.7611853395255767,0.8634529080215163,0.9407433144006409,-2.8785247989637255,0.0550731487136964,3.4433914380482400,8.0000000000000000,0.0000000000000000,0.4304239297560300
-3.4569696194302653,-0.7741396950122891,0.8859516862508768,0.9391554896905341,-2.8757724913378868,0.0559930349441907,3.4929562580495626,8.0000000000000000,0.0000000000000000,0.4366195322561953
-3.5047662874454040,-0.7872242378927707,0.9087880106482674,0.9355257810015256,-2.8729747631984006,0.0569276108214704,3.5425115477343234,8.0000000000000000,0.0000000000000000,0.4428139434667904
-3.5525168058958916,-0.8004410389225051,0.9304134807374353,0.9345879573988122,-2.8701308975892927,0.0578768312855604,3.5920574440502642,8.0000000000000000,0.0000000000000000,0.4490071805062830
-3.6002203347947184,-0.8137922008779781,0.8746452974658133,0.9361437799532544,-2.8672401790888218,0.0588406445941669,3.6415940991145948,8.0000000000000000,0.0000000000000000,0.4551992623893243
-3.6478760212404859,-0.8272798585566778,0.8874630320175241,0.9340992047935579,-2.8643018940351825,0.0598189919185764,3.6911216809279148,8.0000000000000000,0.0000000000000000,0.4613902101159894
-3.6954829994174085,-0.8409061787770933,0.9109530829561349,0.9300988683172614,-2.8613153307656534,0.0608118069248239,3.7406403741042022,8.0000000000000000,0.0000000000000000,0.4675800467630253
-3.7430403905953158,-0.8546733603787154,0.9379577308982880,0.9277872736049718,-2.8582797798696715,0.0618190153394097,3.7901503806170327,8.0000000000000000,0.0000000000000000,0.4737687975771291
-3.7905473031296495,-0.8685836342220373,0.8906984064324985,0.9286330726771743,-2.8551945344563889,0.0628405344995850,3.8396519205621802,8.0000000000000000,0.0000000000000000,0.4799564900702725
-3.8380028324614632,-0.8826392631885529,0.8913054123002978,0.9266913400040429,-2.8520588904371929,0.0638762728885869,3.8891452329367526,8.0000000000000000,0.0000000000000000,0.4861431541170941
-3.8854060611174241,-0.8968425421807584,0.9157580157413162,0.9221518662352287,-2.8488721468237110,0.0649261296557731,3.9386305764350023,8.0000000000000000,0.0000000000000000,0.4923288220543753
-3.9327560587098147,-0.9111957981221516,0.9425423973062500,0.9189379814661750,-2.8456336060417993,0.0659899941215963,3.9881082302609321,8.0000000000000000,0.0000000000000000,0.4985135287826165
-3.9800518819365291,-0.9257013899572321,0.9132017276709044,0.9186937245133122,-2.8423425742620472,0.0670677452674215,4.0375784949578044,8.0000000000000000,0.0000000000000000,0.5046973118697256
-4.0272925745810735,-0.9403617086515004,0.8956512285502768,0.9171129369193062,-2.8389983617473122,0.0681592512107480,4.0870416932546574,8.0000000000000000,0.0000000000000000,0.5108802116568322
-4.0744771675125691,-0.9551791771914598,0.9230756860631117,0.9118979681168710,-2.8356002832177780,0.0692643686662072,4.1364981709299187,8.0000000000000000,0.0000000000000000,0.5170622713662398
-4.1216046786857508,-0.9701562505846147,0.9449935748473715,0.8989153166112061,-2.8321476582340299,0.0703829423921166,4.1859482976921658,8.0000000000000000,0.0000000000000000,0.5232435372115207
-4.1686741131409617,-0.9852954158594710,0.9242678634206567,0.8998336236410489,-2.8286398115986890,0.0715148046235187,4.2353924680780954,8.0000000000000000,0.0000000000000000,0.5294240585097619
-4.2156844630041661,-1.0005991920655368,0.9050894077533371,0.9070848194014890,-2.8250760737770300,0.0726597744926357,4.2848311023677503,8.0000000000000000,-1.1010602545421098,0.5356038877959688
-4.2626347074869368,-1.0160701302733219,0.9408777037676807,0.9076066173961961,-2.8214557813370642,0.0738176574357713,4.3342646475169815,7.9931934404460732,-3.7366156584094852,0.5417857107487530
-4.3095238128864555,-1.0317108135743367,0.9427947118337429,0.9066545436286622,-2.8177782774096451,0.0749882445892222,4.3836935781071711,7.9700531707352278,-3.6892433200889601,0.5479785525677308
-4.3563507325855282,-1.0475238570810950,0.9011713505792317,0.9060485514498277,-2.8140429121688584,0.0761713121746689,4.4331183973122021,7.9471420760012288,-3.6415988306560854,0.5541887948169317
-4.4031144070525636,-1.0635119079271105,0.9354529077135441,0.9072350409688059,-2.8102490433332576,0.0773666208731726,4.4825396378825646,7.9244635472950415,-3.5936927201100013,0.5604164244271108
-4.4498137638415871,-1.0796776452668995,0.9556246514662128,0.9056133819337840,-2.8063960366883411,0.0785739151911365,4.5319578631466060,7.9020209237677692,-3.5455358445224459,0.5666614279026960
-4.4964477175922406,-1.0960237802759809,0.9038284569427535,0.9041033703895094,-2.8024832666305506,0.0797929228188111,4.5813736680287809,7.8798174892996267,-3.4971394160205960,0.5729237914612101
-4.5430151700297747,-1.1125530561508734,0.9319702549610019,0.9050155155312467,-2.7985101167331963,0.0810233539815283,4.6307876800847785,7.8578564689196746,-3.4485150336717760,0.5792035011803444
-4.5895150099650550,-1.1292682481090988,0.9500192791884979,0.8884583518965256,-2.7944759803346333,0.0822649007861173,4.6802005605534074,7.8361410250094776,-3.3996747152611810,0.5855005431529512
-4.6359461132945601,-1.1461721633891795,0.9263784759790358,0.9100091331815876,-2.7903802611489246,0.0835172365642521,4.7296130054250316,7.8146742532838820,-3.3506309300230992,0.5918149036502164
-4.6823073430003843,-1.1632676412506413,0.9436933442450119,0.9157711587590943,-2.7862223738992231,0.0847800152135983,4.7790257465263704,7.7934591785416609,-3.3013966322322936,0.5981465692932822
-4.7285975491502290,-1.1805575529740095,0.9549122858113614,0.8888942058457243,-2.7820017449741092,0.0860528705394566,4.8284395526213979,7.7724987501793432,-3.2519852956741193,0.6044955272335903
-4.7748155688974130,-1.1980448018608119,0.9371748692125558,0.9013027618724677,-2.7777178131069400,0.0873354155986747,4.8778552305281115,7.7517958374613203,-3.2024109490047961,0.6108617653422197
-4.8209602264808682,-1.2157323232335790,0.9439947597487844,0.9103861529730585,-2.7733700300783735,0.0886272420475025,4.9272736262508223,7.7313532245392418,-3.1526882118718125,0.6172452724084916
-4.8670303332251379,-1.2336230844358420,0.9330617555781768,0.9070722999475445,-2.7689578614420691,0.0899279194973051,4.9766956261276460,7.7111736052144320,-3.1028323318515536,0.6236460383481177
-4.9130246875403838,-1.2517200848321344,0.9080173315830730,0.9044295809209236,-2.7644807872734516,0.0912369948791491,5.0261221579928277,7.6912595774366235,-3.0528592221676831,0.6300640544211696
-4.9589420749223727,-1.2700263558079901,0.9402949282177799,0.8972748067432739,-2.7599383029415661,0.0925539918201905,5.0755541923534437,7.6716136375324560,-3.0027855000698476,0.6364993134601429
