# x_m,y_m,w_tr_right_m,w_tr_left_m,psi,kappa,s,velocity,acceleration,time
0.0016495560129569,-0.0865091012044633,0.8976229881230297,0.9705311811039109,0.1375430858912112,0.0123720699004688,0.0000000000000000,8.0000000000000000,0.0000000000000000,0.0000000000000000
0.0515620871874344,-0.0796003558163773,0.8926368152301156,0.9523099668910801,0.1369196770011840,0.0185738135159993,0.0503884067130584,8.0000000000000000,0.0000000000000000,0.0062985508391323
0.1015088083229687,-0.0727503183597124,0.8897582449959666,0.9356911082766101,0.1356707958925563,0.0248135421882354,0.1008026702239789,8.0000000000000000,0.0000000000000000,0.0126003337779974
0.1514892851686191,-0.0659593558020221,0.8894364610783431,0.9222958901277336,0.1344171324548940,0.0248961544237106,0.1512423890790494,8.0000000000000000,0.0000000000000000,0.0189052986348812
0.2015030834734458,-0.0592278351108598,0.8919275729886106,0.9109963066503196,0.1331586620621079,0.0249793710074187,0.2017071628493878,8.0000000000000000,0.0000000000000000,0.0252133953561735
0.2515497689865076,-0.0525561232537788,0.8720366988791615,0.9674701356628084,0.1318953599619119,0.0250631950133031,0.2521965921385690,8.0000000000000000,0.0000000000000000,0.0315245740173211
0.3016289074568633,-0.0459445871983328,0.8870529697940864,0.9794847803799194,0.1306272012753418,0.0251476295368131,0.3027102785903171,8.0000000000000000,0.0000000000000000,0.0378387848237896
0.3517400646335745,-0.0393935939120750,0.8831622681186390,0.9629970865751707,0.1293541609962832,0.0252326776948118,0.3532478248962633,8.0000000000000000,0.0000000000000000,0.0441559781120329
0.4018828062656992,-0.0329035103625589,0.8797094147948048,0.9461746229155549,0.1280762139909972,0.0253183426254095,0.4038088348037573,8.0000000000000000,0.0000000000000000,0.0504761043504697
0.4520566981022977,-0.0264747035173380,0.8790097127304340,0.9322109447165401,0.1267933349976622,0.0254046274877860,0.4543929131237568,8.0000000000000000,0.0000000000000000,0.0567991141404696
0.5022613058924297,-0.0201075403439655,0.8810619342837775,0.9219466613823364,0.1255054986259136,0.0254915354621105,0.5049996657387719,8.0000000000000000,0.0000000000000000,0.0631249582173465
0.5524961953851536,-0.0138023878099951,0.8591732229304138,0.9830686832620458,0.1242126793563911,0.0255790697492631,0.5556286996108775,8.0000000000000000,0.0000000000000000,0.0694535874513597
0.6027609323295301,-0.0075596128829802,0.8756726953195619,0.9912742666442796,0.1229148515403031,0.0256672335706988,0.6062796227897963,8.0000000000000000,0.0000000000000000,0.0757849528487245
0.6530550824746190,-0.0013795825304741,0.8822773437655398,0.9858768254614008,0.1216119893989842,0.0257560301683854,0.6569520444210410,8.0000000000000000,0.0000000000000000,0.0821190055526301
0.7033782115694781,0.0047373362799697,0.8767033702190284,0.9676295914046793,0.1203040670234627,0.0258454628044884,0.7076455747541261,8.0000000000000000,0.0000000000000000,0.0884556968442658
0.7537298853631698,0.0107907765807978,0.8731875805738842,0.9526567890380940,0.1189910583740461,0.0259355347611903,0.7583598251508541,8.0000000000000000,0.0000000000000000,0.0947949781438568
0.8041096696047496,0.0167803714044565,0.8720686002397994,0.9391016380067050,0.1176729372799032,0.0260262493405665,0.8090944080936530,8.0000000000000000,0.0000000000000000,0.1011368010117066
0.8545171300432809,0.0227057537833927,0.8739259115358358,0.9287328371433202,0.1163496774386583,0.0261176098643990,0.8598489371940072,8.0000000000000000,0.0000000000000000,0.1074811171492509
0.9049518324278228,0.0285665567500532,0.8773833974305878,0.9241058933180510,0.1150212524159882,0.0262096196739242,0.9106230272009324,8.0000000000000000,0.0000000000000000,0.1138278784001165
0.9554133425074322,0.0343624133368838,0.8564216937585177,0.9868720281749599,0.1136876356452377,0.0263022821295507,0.9614162940095323,8.0000000000000000,0.0000000000000000,0.1201770367511915
1.0059012260311713,0.0400929565763317,0.8746701332954787,0.9947375210453698,0.1123488004270410,0.0263956006107985,1.0122283546696338,8.0000000000000000,0.0000000000000000,0.1265285443337042
1.0564150487480979,0.0457578195008432,0.8935713132553409,1.0031186874249487,0.1110047199289390,0.0264895785160501,1.0630588273944728,8.0000000000000000,0.0000000000000000,0.1328823534243091
1.1069543764072725,0.0513566351428649,0.9010175392974445,0.9988990140123125,0.1096553671850211,0.0265842192621794,1.1139073315694705,8.0000000000000000,0.0000000000000000,0.1392384164461838
1.1575187747577551,0.0568890365348435,0.9042212280935034,0.9907189907319430,0.1083007150955753,0.0266795262844391,1.1647734877610707,8.0000000000000000,0.0000000000000000,0.1455966859701338
1.2081078095486035,0.0623546567092253,0.8953077955043333,0.9711870587779721,0.1069407364267365,0.0267755030362342,1.2156569177256504,8.0000000000000000,0.0000000000000000,0.1519571147157063
1.2587210465288787,0.0677531286984571,0.8884658553657331,0.9532785935716777,0.1055754038101546,0.0268721529887857,1.2665572444185118,8.0000000000000000,0.0000000000000000,0.1583196555523140
1.3093580514476411,0.0730840855349855,0.8844452945121035,0.9391108934138541,0.1042046897426714,0.0269694796309302,1.3174740920029380,8.0000000000000000,0.0000000000000000,0.1646842615003672
1.3600183900539482,0.0783471602512568,0.8830966915212298,0.9267858321697396,0.1028285665860031,0.0270674864688350,1.3684070858593249,8.0000000000000000,0.0000000000000000,0.1710508857324156
1.4107016280968609,0.0835419858797179,0.8846033381663210,0.9176546777283189,0.1014470065664410,0.0271661770257232,1.4193558525943959,8.0000000000000000,0.0000000000000000,0.1774194815742995
1.4614073313254381,0.0886681954528151,0.8885390265826622,0.9114609734173379,0.1000599817745553,0.0272655548416088,1.4703200200504807,8.0000000000000000,0.0000000000000000,0.1837900025063101
1.5121350654887393,0.0937254220029950,0.8936303145252658,0.9063696854747343,0.0986674641649166,0.0273656234729691,1.5212992173148787,8.0000000000000000,0.0000000000000000,0.1901624021643598
1.5628843963358245,0.0987132985627043,0.8987182720262495,0.9012817279737505,0.0972694255558264,0.0274663864924843,1.5722930747292949,8.0000000000000000,0.0000000000000000,0.1965366343411619
1.6136548896157543,0.1036314581643896,0.9037216868403100,0.8962783131596901,0.0958658376290584,0.0275678474887343,1.6233012238993545,8.0000000000000000,0.0000000000000000,0.2029126529874193
1.6644461110775863,0.1084795338404973,0.9084067671896195,0.9188523274741661,0.0944566719296129,0.0276700100658701,1.6743232977041904,8.0000000000000000,0.0000000000000000,0.2092904122130238
1.7152576264703809,0.1132571586234741,0.9128781020716549,0.9871218979283453,0.0930418998654836,0.0277728778432225,1.7253589303061199,8.0000000000000000,0.0000000000000000,0.2156698662882650
1.7660890015431965,0.1179639655457662,0.9177793517971339,0.9822206482028663,0.0916214927074446,0.0278764544550424,1.7764077571603873,8.0000000000000000,0.0000000000000000,0.2220509696450484
1.8169398020450958,0.1225995876398208,0.9224835985791406,0.9775164014208595,0.0901954215888354,0.0279807435502159,1.8274694150250008,8.0000000000000000,0.0000000000000000,0.2284336768781251
1.8678095937251349,0.1271636579380840,0.9264927780018536,0.9727539000360003,0.0887636575053692,0.0280857487917497,1.8785435419706282,8.0000000000000000,0.0000000000000000,0.2348179427463285
1.9186979423323749,0.1316558094730024,0.9256023565522401,0.9631593633209924,0.0873261713149611,0.0281914738565092,1.9296297773905988,8.0000000000000000,0.0000000000000000,0.2412037221738249
1.9696044136158755,0.1360756752770228,0.9157548085402430,0.9440125494410803,0.0858829337375542,0.0282979224348519,1.9807277620109673,8.0000000000000000,0.0000000000000000,0.2475909702513709
2.0205285733246963,0.1404228883825916,0.9086067359385718,0.9279652133690457,0.0844339153549762,0.0284050982301646,2.0318371379006681,8.0000000000000000,0.0000000000000000,0.2539796422375835
2.0714699872078959,0.1446970818221554,0.9041727534906064,0.9149465568585884,0.0829790866108029,0.0285130049585670,2.0829575484817489,8.0000000000000000,0.0000000000000000,0.2603696935602186
2.1224282210145353,0.1488978886281608,0.9025569132928468,0.9047834640828406,0.0815184178102348,0.0286216463484168,2.1340886385396920,8.0000000000000000,0.0000000000000000,0.2667610798174615
2.1734028404936723,0.1530249418330543,0.9037635592264539,0.8977219978115200,0.0800518791200009,0.0287310261399202,2.1852300542338123,8.0000000000000000,0.0000000000000000,0.2731537567792265
2.2243934113943671,0.1570778744692824,0.9071051987460420,0.8928948012539580,0.0785794405682643,0.0288411480847398,2.2363814431077480,8.0000000000000000,0.0000000000000000,0.2795476803884685
2.2753994994656810,0.1610563195692920,0.9110848624622463,0.8889151375377538,0.0771010720445542,0.0289520159454910,2.2875424541000302,8.0000000000000000,0.0000000000000000,0.2859428067625038
2.3264206704566712,0.1649599101655293,0.9150213935373844,0.8849786064626156,0.0756167432997124,0.0290636334953091,2.3387127375547356,8.0000000000000000,0.0000000000000000,0.2923390921943420
2.3774564901163990,0.1687882792904410,0.9189813038090353,0.8810186961909647,0.0741264239458563,0.0291760045173890,2.3898919452322374,8.0000000000000000,0.0000000000000000,0.2987364931540297
2.4285065241939225,0.1725410599764737,0.9227187879049785,0.8772812120950215,0.0726300834563607,0.0292891328045214,2.4410797303200273,8.0000000000000000,0.0000000000000000,0.3051349662900034
2.4795703384383025,0.1762178852560739,0.9266767418272699,0.8733232581727302,0.0711276911658547,0.0294030221585697,2.4922757474436401,8.0000000000000000,0.0000000000000000,0.3115344684304550
2.5306474985985981,0.1798183881616883,0.9301054741059122,0.8698945258940879,0.0696192162702436,0.0295176763899503,2.5434796526776533,8.0000000000000000,0.0000000000000000,0.3179349565847067
2.5817375704238676,0.1833422017257632,0.9333305878443398,0.9302804304065471,0.0681046278267454,0.0296330993171483,2.5946911035567837,8.0000000000000000,0.0000000000000000,0.3243363879445980
2.6328401196631726,0.1867889589807454,0.9367468763357226,0.9632531236642775,0.0665838947539472,0.0297492947661885,2.6459097590870724,8.0000000000000000,0.0000000000000000,0.3307387198858840
2.6839547120655722,0.1901582929590814,0.9401152831383012,0.9598847168616990,0.0650569858318812,0.0298662665700508,2.6971352797571546,8.0000000000000000,0.0000000000000000,0.3371419099696443
2.7350809133801244,0.1934498366932178,0.9433998768071441,0.9566001231928560,0.0635238697021254,0.0299840185681333,2.7483673275496239,8.0000000000000000,0.0000000000000000,0.3435459159437030
2.7862182893558902,0.1966632232156011,0.9456793282678582,0.9524383030739413,0.0619845148679183,0.0301025546056769,2.7996055659524912,8.0000000000000000,0.0000000000000000,0.3499506957440614
2.8373664057419301,0.1997980855586780,0.9376564737934749,0.9380337477298546,0.0604388896943020,0.0302218785331293,2.8508496599707285,8.0000000000000000,0.0000000000000000,0.3563562074963411
2.8885248282873004,0.2028540567548948,0.9276184641008222,0.9219044669386095,0.0588869624082851,0.0303419942055943,2.9020992761379034,8.0000000000000000,0.0000000000000000,0.3627624095172379
2.9396931227410650,0.2058307698366985,0.9202037162878577,0.9085541542796156,0.0573287010990238,0.0304629054822009,2.9533540825279245,8.0000000000000000,0.0000000000000000,0.3691692603159906
2.9908708548522784,0.2087278578365351,0.9155062485758008,0.8980611803628648,0.0557640737180318,0.0305846162254196,3.0046137487668489,8.0000000000000000,0.0000000000000000,0.3755767185958561
3.0420575903700047,0.2115449537868516,0.9135799607937748,0.8904995049186918,0.0541930480794122,0.0307071303004416,3.0558779460448222,8.0000000000000000,0.0000000000000000,0.3819847432556028
3.0932528950433009,0.2142816907200945,0.9144630611273684,0.8859083674884928,0.0526155918601108,0.0308304515745376,3.1071463471280762,8.0000000000000000,0.0000000000000000,0.3883932933910095
3.1444563346212271,0.2169377016687103,0.9169726480242082,0.8830273519757919,0.0510316726001943,0.0309545839162857,3.1584186263710503,8.0000000000000000,0.0000000000000000,0.3948023282963813
3.1956674748528435,0.2195126196651454,0.9195136201318482,0.8804863798681518,0.0494412577031613,0.0310795311948939,3.2096944597285946,8.0000000000000000,0.0000000000000000,0.4012118074660743
3.2468858814872106,0.2220060777418468,0.9222760703862604,0.8777239296137397,0.0478443144362686,0.0312052972795690,3.2609735247682736,8.0000000000000000,0.0000000000000000,0.4076216905960342
3.2981111202733850,0.2244177089312607,0.9245005979781800,0.8754994020218201,0.0462408099308844,0.0313318860386699,3.3122555006827636,8.0000000000000000,0.0000000000000000,0.4140319375853455
3.3493427569604286,0.2267471462658338,0.9267516741026344,0.8732483258973657,0.0446307111828783,0.0314593013388906,3.3635400683023597,8.0000000000000000,0.0000000000000000,0.4204425085377950
3.4005803572973989,0.2289940227780124,0.9290353955694369,0.8709646044305631,0.0430139850530349,0.0315875470446559,3.4148269101075646,8.0000000000000000,0.0000000000000000,0.4268533637634456
3.4518234870333582,0.2311579715002436,0.9312681646159113,0.8687318353840887,0.0413905982674807,0.0317166270172640,3.4661157102417928,8.0000000000000000,0.0000000000000000,0.4332644637802241
3.5030717119173636,0.2332386254649735,0.9334056224848504,0.8665943775151497,0.0397605174181610,0.0318465451139295,3.5174061545241591,8.0000000000000000,0.0000000000000000,0.4396757693155199
3.5543245976984754,0.2352356177046490,0.9352304945458051,0.8720365090369814,0.0381237089633386,0.0319773051871234,3.5686979304623834,8.0000000000000000,0.0000000000000000,0.4460872413077979
3.6055817101257546,0.2371485812517164,0.9369769994608556,0.9630230005391446,0.0364801392281113,0.0321089110836491,3.6199907272657859,8.0000000000000000,0.0000000000000000,0.4524988409082232
3.6568426149482591,0.2389771491386224,0.9389551513153973,0.9610448486846028,0.0348297744049784,0.0322413666437105,3.6712842358583835,8.0000000000000000,0.0000000000000000,0.4589105294822979
3.7081068779150490,0.2407209543978135,0.9407081819363475,0.9592918180636526,0.0331725805544245,0.0323746757001302,3.7225781488920968,8.0000000000000000,0.0000000000000000,0.4653222686115121
3.7593740647751845,0.2423796300617364,0.9423486549746307,0.9576513450253694,0.0315085236055375,0.0325088420773343,3.7738721607600541,8.0000000000000000,0.0000000000000000,0.4717340200950068
3.8106437412777230,0.2439528091628374,0.9438408988825090,0.9561591011174911,0.0298375693566661,0.0326438695904236,3.8251659676099954,8.0000000000000000,0.0000000000000000,0.4781457459512494
3.8619154731717260,0.2454401247335634,0.9453972478470013,0.9546027521529988,0.0281596834761020,0.0327797620442605,3.8764592673577933,8.0000000000000000,0.0000000000000000,0.4845574084197242
3.9131888262062531,0.2468412098063607,0.9468025825799936,0.9531974174200065,0.0264748315027989,0.0329165232324296,3.9277517597010636,8.0000000000000000,0.0000000000000000,0.4909689699626330
3.9644633661303632,0.2481556974136760,0.9481270912557689,0.9518729087442312,0.0247829788471288,0.0330541569362558,3.9790431461328901,8.0000000000000000,0.0000000000000000,0.4973803932666113
4.0157386586931150,0.2493832205879559,0.9493357006747469,0.9506642993252532,0.0230840907916676,0.0331926669237803,4.0303331299556522,8.0000000000000000,0.0000000000000000,0.5037916412444565
4.0670142696435709,0.2505234123616469,0.9505288706766353,0.9494711293233649,0.0213781324920215,0.0333320569486532,4.0816214162949649,8.0000000000000000,0.0000000000000000,0.5102026770368706
4.1182897647307870,0.2515759057671955,0.9515872002091390,0.9484127997908611,0.0196650689776909,0.0334723307491302,4.1329077121137097,8.0000000000000000,0.0000000000000000,0.5166134640142137
4.1695647097038266,0.2525403338370485,0.9525779152914392,0.9474220847085609,0.0179448651529623,0.0336134920469406,4.1841917262262003,8.0000000000000000,0.0000000000000000,0.5230239657782750
4.2208386703117435,0.2534163296036521,0.9535774396546313,0.9464225603453689,0.0162174857978512,0.0337555445460910,4.2354731693124217,8.0000000000000000,0.0000000000000000,0.5294341461640527
4.2721112123036047,0.2542035260994533,0.9543897050888911,0.9456102949111090,0.0144828955690768,0.0338984919318468,4.2867517539324185,8.0000000000000000,0.0000000000000000,0.5358439692415523
4.3233819014284647,0.2549015563568983,0.9549190463043173,0.9450809536956828,0.0127410590010704,0.0340423378694341,4.3380271945407483,8.0000000000000000,0.0000000000000000,0.5422533993175935
4.3746503034353825,0.2555100534084338,0.9555110937228719,0.9444889062771282,0.0109919405070422,0.0341870860028670,4.3892992075010824,8.0000000000000000,0.0000000000000000,0.5486624009376353
4.4259159840734217,0.2560286502865065,0.9560429726896105,0.9439570273103897,0.0092355043800671,0.0343327399537907,4.4405675111009026,8.0000000000000000,0.0000000000000000,0.5550709388876128
4.4771785090916385,0.2564569800235627,0.9569685457240975,0.9430314542759026,0.0074717147942278,0.0344793033200987,4.4918318255662983,8.0000000000000000,0.0000000000000000,0.5614789781957873
4.5284374442390947,0.2567946756520492,0.9571633438084561,0.9428366561915440,0.0057005358057973,0.0346267796747085,4.5430918730768948,8.0000000000000000,0.0000000000000000,0.5678864841346118
4.5796923552648474,0.2570413702044124,0.9571584013743157,0.9428415986256844,0.0039219313544625,0.0347751725643184,4.5943473777808777,8.0000000000000000,0.0000000000000000,0.5742934222226097
4.6309428079179593,0.2571966967130991,0.9572822536896248,0.9427177463103753,0.0021358652645873,0.0349244855079733,4.6455980658101437,8.0000000000000000,0.0000000000000000,0.5806997582262680
4.6821883679474867,0.2572602882105555,0.9572655493169925,0.9427344506830077,0.0003423012465353,0.0350747219956401,4.6968436652955479,8.0000000000000000,0.0000000000000000,0.5871054581619435
4.7334286011024904,0.2572317777292285,0.9572408840124244,0.9427591159875758,-0.0014587971019699,0.0352258854869668,4.7480839063822824,8.0000000000000000,0.0000000000000000,0.5935104882977853
4.7846630731320303,0.2571107983015645,0.9571152059949760,0.9428847940050241,-0.0032674662944461,0.0353779794098222,4.7993185212453575,8.0000000000000000,0.0000000000000000,0.5999148151556697
4.8358913497851672,0.2568969829600102,0.9568963575822804,0.9431036424177197,-0.0050837429541930,0.0355310071587430,4.8505472441052007,8.0000000000000000,0.0000000000000000,0.6063184055131501
4.8871129968109592,0.2565899647370120,0.9565904111878151,0.9434095888121851,-0.0069076638127878,0.0356849720934528,4.9017698112433683,8.0000000000000000,0.0000000000000000,0.6127212264054210
4.9383275799584636,0.2561893766650165,0.9561904511612785,0.9438095488387216,-0.0087392657085288,0.0358398775374255,4.9529859610183768,8.0000000000000000,0.0000000000000000,0.6191232451272971
4.9895346649767447,0.2556948517764704,0.9556960921245204,0.9443039078754797,-0.0105785855848386,0.0359957267763776,5.0041954338816552,8.0000000000000000,0.0000000000000000,0.6255244292352069
5.0407338176148579,0.2551060231038202,0.9551069708150594,0.9448930291849408,-0.0124256604886104,0.0361525230565345,5.0553979723935942,8.0000000000000000,0.0000000000000000,0.6319247465491993
5.0919246036218659,0.2544225236795123,0.9544227467392191,0.9455772532607810,-0.0142805275684921,0.0363102695830789,5.1065933212397372,8.0000000000000000,0.0000000000000000,0.6383241651549671
5.1431065887468268,0.2536439865359936,0.9536431130388857,0.9463568869611144,-0.0161432240731332,0.0364689695185762,5.1577812272470700,8.0000000000000000,0.0000000000000000,0.6447226534058837
5.1942793387387995,0.2527700447057104,0.9527678411865738,0.9472321588134264,-0.0180137873493686,0.0366286259812350,5.2089614394004373,8.0000000000000000,0.0000000000000000,0.6511201799250547
5.2454424193468459,0.2518003312211093,0.9520326345819587,0.9479673654180414,-0.0198922548403506,0.0367892420431963,5.2601337088590769,8.0000000000000000,0.0000000000000000,0.6575167136073846
