# x_m,y_m,w_tr_right_m,w_tr_left_m,psi,kappa,s,velocity,acceleration,time
-0.0067833474058018,0.0172694027808759,1.0016769485402566,0.8664772206866840,0.1350836275038243,0.0400354893550681,0.0000000000000000,7.3330495679439283,-5.3466747999590254,0.0000000000000000
0.0922506782767977,0.0307292478805376,1.0012019276575641,0.8607415052430388,0.1310823000186767,0.0598298589844338,0.0999445129709914,7.2598122805021807,-4.3925911545893674,0.0136977261909231
0.1913892463501644,0.0433961353319520,0.9999281490674774,0.8557971465261436,0.1231242952559093,0.0792525371365775,0.1998890261637843,7.1990863016725584,-4.3908888718143828,0.0275223633338942
0.2906249466052274,0.0552781156907944,0.9978630570618257,0.8516473679726458,0.1152405875536588,0.0785421377255500,0.2998335390815060,7.1378675442873556,-4.4966658730578315,0.0414645876015527
0.3899509071333242,0.0663803343813384,0.9950132799389952,0.8482829496939188,0.1074245838462160,0.0778497889280305,0.3997780521609228,7.0746250018968224,-4.6018683274697540,0.0555289064048368
0.4893602147961837,0.0767096730175121,0.9913863732933754,0.8456976966880118,0.0996792690612844,0.0770863135084061,0.4997225652002578,7.0093120874550454,-4.7111922363528560,0.0697216015873363
0.5888462317981805,0.0862719995521113,0.9869892579844254,0.8438842248506078,0.0920158757223506,0.0765745317025349,0.5996670781445705,6.9418110254057463,-4.8076934373188678,0.0840494104864175
0.6884021730822971,0.0950765593926402,0.9818312749686082,0.8428360224124593,0.0843728604917440,0.0750319374128542,0.6996115913454057,6.8722438222185778,-4.9472044324201265,0.0985193853494497
0.7880227318892751,0.1031170817329863,0.9759101509729957,0.8425453984534433,0.0770178147972695,0.0768357362779702,0.7995561046341308,6.7999149460669948,-4.9295450279015691,0.1131395364144827
0.8876974074585208,0.1104562643658781,0.9692701673915397,0.8430120363012079,0.0690142404162706,-0.0534909304736388,0.8995006119947323,6.7270707871327069,0.0000000000000000,0.1279165916035488
0.9874339384640951,0.1169011860412430,0.9619091451804503,0.8442861257718269,0.0877100663486325,-0.1878308528253489,0.9994451597821303,6.7270707871327069,0.0000000000000000,0.1427736595533269
1.0867645583089076,0.1279613696643052,0.9673506818737434,0.8463143770547009,0.1065595675567836,-0.0549706889037113,1.0993896428741476,6.7270707871327069,6.0123849535198302,0.1576307178859354
1.1861872839180945,0.1381607847285930,0.9718884697425871,0.8490616946030776,0.0986981023760982,0.0754315858178008,1.1993341596582778,6.8158118513419721,4.9958037156923032,0.1723904288650725
1.2856795467050699,0.1476578998308656,0.9757151122644199,0.8525727510449651,0.0914816211012914,0.0726481996926107,1.2992786720125757,6.8886789390462226,5.0525597763922727,0.1869760875200288
1.3852391158386104,0.1564213376072311,0.9788048787200804,0.8568063549659244,0.0841765245570976,0.0727006086516092,1.3992231848570358,6.9615981481407756,4.9766486963708765,0.2014082194138983
1.4848595107392986,0.1644638897242617,0.9811711796690242,0.8617671753409057,0.0769495672429217,0.0721545841027388,1.4991676980867485,7.0326827199259618,4.9313333934216956,0.2156918420125805
1.5845353418388444,0.1717874366959538,0.9828159984472761,0.8674479617018428,0.0697536150147666,0.0717862490605816,1.5991122109207794,7.1024182970591543,4.8787896382937097,0.2298331647684541
1.6842611636560332,0.1783954782125372,0.9837435707672744,0.8738440820311029,0.0626002838244277,0.0713402021313628,1.6990567242759336,7.1707434885598529,0.6191885186003292,0.2438377020750870
1.7840315656276904,0.1842922958581937,0.9839575396024561,0.8809575308180055,0.0554934915103198,0.0697463678089636,1.7990012367212509,7.1793684379567830,-4.8586256160991930,0.2577671422017025
1.8838412342299220,0.1894822561813016,0.9834636515921418,0.8887495784205989,0.0486587503501534,0.0061727149623180,1.8989457495003061,7.1114095106368529,-5.8621647429166677,0.2717544161119924
1.9836829295598930,0.1940147561497243,0.9823030481944748,0.8967040820751743,0.0542596334682202,-0.0533970827822034,1.9988902725234639,7.0285391590108057,-5.8393358954536421,0.2858908921853031
2.0834281919741682,0.2003224116376246,0.9816862659362601,0.8933571206658855,0.0593322412765795,0.0108188640624825,2.0988347765837005,6.9450085420770948,-5.1638733810789823,0.3001957067103154
2.1832187564081598,0.2058675757892176,0.9803737771202373,0.8907532046187314,0.0520970613695699,0.0706792380662167,2.1987792891670472,6.8702941737086993,-5.1617967878356881,0.3146643744824876
2.2830448571118742,0.2107312719051112,0.9783567232739466,0.8888375174201256,0.0452042371646948,0.0691201515258506,2.2987238033817650,6.7947888479646696,-5.3076804237463220,0.3292920959615597
2.3829023805007608,0.2149002750709132,0.9756500257944475,0.8876169137227227,0.0382807015595710,0.0690043762099710,2.3986683158112050,6.7162644694993832,-5.3860455746631848,0.3440865772031154
2.4827862558680365,0.2183812499352543,0.9722539088049217,0.8870850094689269,0.0314110196310766,0.0685958249677842,2.4986128291393093,6.6356308680346610,-5.4784116162034540,0.3590574125491874
2.5826916324579647,0.2211779239406295,0.9681730520464332,0.8872387896633768,0.0245691489040478,0.0683271669901719,2.5985573420305519,6.5525966346186815,-5.5649572845322677,0.3742140380883108
2.6826137870992111,0.2232918304242735,0.9634135986347999,0.8880739645749235,0.0177531688102797,0.0678794012733987,2.6985018545801198,6.4671592503735811,-5.6605743055226458,0.3895667856255781
2.7825480090349739,0.2247263807346052,0.9579605629387530,0.8895949671539206,0.0110008011993268,0.0690030372439785,2.7984463724312714,6.3790800300858761,-5.2083046759761640,0.4051269064779396
2.8824895573465912,0.2254907127392162,0.9518872256908080,0.8917904557326702,0.0039602214683137,-0.0830154905291016,2.8983908434256018,6.2969500171912554,0.0000000000000000,0.4208959557183679
2.9824341250983974,0.2255179781609626,0.9456241709772417,0.8950481087855333,0.0275946881109690,-0.2143672484957619,2.9983354148964856,6.2969500171912554,0.0000000000000000,0.4367678573847343
3.0822279692630348,0.2310038313431556,0.9487326310802766,0.8981610897842656,0.0468098947675055,-0.0437338941056165,3.0982799290945771,6.2969500171912554,6.7658820201954430,0.4526397499557780
3.1820976364753024,0.2348710384855790,0.9507342439471730,0.9020600600505252,0.0363366136683752,0.0824897711987330,3.1982244423015134,6.4034369746920241,5.1175890019888053,0.4683785637841772
3.2819844925420800,0.2382655032202338,0.9520737222610109,0.9067254996252965,0.0303210944305687,0.0648295331436460,3.2981689589381951,6.4828199887973819,5.7754121274374217,0.4838903632027135
3.3818934551545907,0.2409309235741148,0.9527312597455310,0.9120422904158283,0.0233779013271436,0.0681618260524836,3.3981134699228956,6.5712553206198407,5.5566771638288044,0.4992027478206575
3.4818178138253248,0.2429380381391124,0.9527165425755320,0.9180426105170292,0.0166962934504562,0.0673247664382383,3.4980579843528261,6.6552321740672635,5.5180436829954385,0.5143155303292528
3.5817534750119182,0.2442681552229084,0.9520273339673019,0.9247153301649572,0.0099204192723548,0.0675006409916682,3.5980024968998299,6.7375894549133948,5.4358008648618652,0.5292406171131663
3.6816958559960624,0.2449209771713392,0.9506625420890606,0.9320654199648259,0.0032036560939475,0.0682901865829309,3.6979470099722151,6.8177465928380112,5.3257581783362919,0.5439867676652899
3.7816403686806748,0.2449085262787094,0.9486203785633033,0.9400941095389811,-0.0037300396454336,0.0616322588887463,3.7978915234323813,6.8953773808280401,5.5696184912806492,0.5585632439885688
3.8815821894911573,0.2441753897649844,0.9459266026939599,0.9487326182622589,-0.0091159559356859,0.0010529951622632,3.8978360332168731,6.9756386663609753,8.4487617452538188,0.5729737975405914
3.9815207820366747,0.2430863747638765,0.9431556882405715,0.9566034087832991,-0.0039405218328739,-0.0386948921952597,3.9977805589981865,7.0956571066933414,6.5517760332174770,0.5871792449127803
4.0814648334371268,0.2433877437657184,0.9432999862078243,0.9564903654079331,-0.0013812714087926,0.0249398132107040,4.0977250647681958,7.1873484548113531,7.2116596825539849,0.6011741293003323
4.1814076744122790,0.2428102765388553,0.9427635601479758,0.9570504972161096,-0.0089257165305141,0.0709218456117833,4.1976695740249959,7.2869410170989424,4.7340847932164927,0.6149840658019836
4.2813449064880942,0.2416036235139709,0.9415414904076916,0.9582963716390559,-0.0155577700287766,0.0676494190415183,4.2976140904653581,7.3515849323510070,4.8438329595278846,0.6286390631405808
4.3812712987289135,0.2397005933369679,0.9396378723951038,0.9602237658657740,-0.0224480931472260,0.0686629763072283,4.3975586020211246,7.4171443329603495,4.7225729577020870,0.6421736753283084
4.4811824108532852,0.2371168989309257,0.9370491940124360,0.9628362320496915,-0.0292827454284863,0.0686149964696667,4.4975031156409955,7.4805093790830588,-4.4471788144758015,0.6555911591216221
4.5810734567085420,0.2338481647345963,0.9337754596902842,0.9661337505584432,-0.0361634779984381,0.0685880372284476,4.5974476285734385,7.4208542856922532,-4.7226838118681673,0.6690053023075505
4.6809395533455262,0.2298898351175296,0.9298148038450392,0.9701181925816260,-0.0429927413642484,0.0694703702990682,4.6973921413335935,7.3569739475196059,-4.7331641332539771,0.6825315811602900
4.7807766381062677,0.2252570836726399,0.9251661876748052,0.9747905926067785,-0.0500498427064566,0.0616959559369046,4.7973366553374825,7.2923904233443775,-5.1791862604175094,0.6961764754333367
4.8805769160638777,0.2198896650224742,0.9198524776768181,0.9800517732763718,-0.0553250856531391,-0.0016582315352800,4.8972811632575395,7.2210591772978354,-6.3718643566749753,0.7099491498381363
4.9803595845195519,0.2142038602902521,0.9141975379220657,0.9839011069381978,-0.0497183803983736,-0.0418347631782327,4.9972256943714930,7.1323228790582744,-6.3642227197318135,0.7238754190228536
5.0802137685036852,0.2099558575184420,0.9098748588797543,0.9784257013586991,-0.0469627752685684,0.0246373031695484,5.0971701969050818,7.0425770498919640,-4.9835877683780927,0.7379770356881629
5.1800262341500689,0.2048200606166797,0.9049080195931193,0.9736925395538580,-0.0546431065547084,0.0723515900621668,5.1971147050494846,6.9714938891929732,-4.9802636402439688,0.7522404868407699
5.2798034032591410,0.1990387920329667,0.8992231040823385,0.9696368776440248,-0.0614250640967247,0.0691062615679285,5.2970592223671318,6.8997265855812975,-5.2097286219054171,0.7666508291029238
5.3795370310902006,0.1925496610134534,0.8928493814359918,0.9662842937799307,-0.0684566900518648,0.0700645221767596,5.3970037336808243,6.8238449127592844,-5.2364805078607750,0.7812162082865827
5.4792230288735650,0.1853658192214022,0.8857744743222175,0.9636287540436973,-0.0754301930940251,0.0701678763692374,5.4969482469717406,6.7467136001137424,-5.3047895836939150,0.7959458177121799
5.5788564589986542,0.1774863786469051,0.8780028220657610,0.9616744299208109,-0.0824824786427347,0.0697876428508738,5.5968927614898369,6.6676663955865285,-5.3725464553658631,0.8108469185532373
5.6784312142200264,0.1688972702261539,0.8695275384069659,0.9604212743416266,-0.0893799768008685,0.0720879467711158,5.6968372693972729,6.5866427062237927,-5.3569481786127282,0.8259279774209206
5.7779464904305113,0.1596441784603539,0.8603533577598796,0.9598746104831705,-0.0968920692667059,0.0486979416737765,5.7967818035473471,6.5048494801260395,-3.7287798733418906,0.8411966011541699
5.8773808520292636,0.1495600772380116,0.8506124500690275,0.9600243446744987,-0.0991141560365172,-0.1147818426557495,5.8967261949058116,6.4473037379352860,0.0000000000000000,0.8566294623434733
5.9768541228599616,0.1398648055650236,0.8424822561364980,0.9604772933104859,-0.0739484385880518,-0.2044855690314258,5.9966708290917969,6.4473037379352860,0.0000000000000000,0.8721312345956352
6.0766699831888369,0.1347960355899807,0.8435718042423949,0.9598977619572207,-0.0582397174748674,-0.0288273947227862,6.0966153056888226,6.4473037379352860,7.3017107695945427,0.8876329824051827
6.1763985919695736,0.1282302347883337,0.8438822260773630,0.9600852041163200,-0.0681861598605333,0.0809503100653058,6.1965598160408586,6.5595165450201387,5.0169301799496937,0.9030009982888197
6.2760939237267079,0.1211769697432669,0.8434830586599779,0.9609887062232038,-0.0744207967212946,0.0671622615907088,6.2965043392622988,6.6355170630579794,5.5428397995870018,0.9181498074832508
6.3757329084993319,0.1133681683735373,0.8423853111391744,0.9625887892257048,-0.0816111592598334,0.0703763856561584,6.3964488471922047,6.7184849100628066,5.3233479253182487,0.9331182803247371
6.4753164964154983,0.1048819916391705,0.8405901782794141,0.9648870927752448,-0.0884882637223821,0.0692106262456840,6.4963933626886732,6.7972140134890378,5.3023224554535036,0.9479076768719344
6.5748386611644163,0.0957035161775528,0.8381026628803191,0.9678776028397238,-0.0954456041049365,0.0687765261063857,6.5963378757352142,6.8747359525165646,5.2494842071514602,0.9625280511850421
6.6742945250392340,0.0858325323414700,0.8349234168332734,0.9715601330177692,-0.1022359363693623,0.0701633935840099,6.6962823862446887,6.9506336887974305,5.1103146348179846,0.9769861833149510
6.7736828750804507,0.0753033668107854,0.8310580229893907,0.9759285309602211,-0.1094704969565061,0.0488276396727750,6.7962269081090110,7.0237315282798249,6.0911955938542741,0.9912901635404263
6.8729854800252674,0.0639944305791461,0.8266705191841319,0.9808913274593056,-0.1119960446014592,-0.0522540401101230,6.8961713896350947,7.1098781531300173,5.8585390767885466,1.0054329740154520
6.9723194218250262,0.0529633767156996,0.8240245746542704,0.9851963032457380,-0.0990254866835172,-0.0950459164166907,6.9961159549841723,7.1917609551191246,3.5840897020889444,1.0194096328575046
7.0718819546720422,0.0442339774688152,0.8278763398704787,0.9860361100625274,-0.0929974064980332,0.0114551019075278,7.0960604413659869,7.2413980448818860,7.8993191343319280,1.0332589206512313
7.1713416031925412,0.0344012876162996,0.8310142288375846,0.9875400708474650,-0.1013152354152527,0.0730869381554983,7.1960049433336142,7.3496144577758296,4.5520750907109369,1.0469583814596464
7.2707451827635277,0.0240168806524870,0.8334920400540994,0.9897275132610989,-0.1076066832532805,0.0656174030548603,7.2959494656423205,7.4112578297382443,4.8958497910879242,1.0605001993633549
7.3700732440048675,0.0129335109761966,0.8352945791987948,0.9925842588480507,-0.1144314345338120,0.0674232636359191,7.3958939744126608,7.4769893154680744,4.7306775521721702,1.0739261598267424
7.4693258186237372,0.0011933050367152,0.8364286020871753,0.9961131549763096,-0.1210838535757086,0.0668179298603127,7.4958384890394063,7.5399588703943685,4.7013352214225481,1.0872370554081545
7.5684976349210826,-0.0112105890388696,0.8368943245055911,1.0003103885513118,-0.1277876055807243,0.0664326677383897,7.5957830023252928,7.6020211186392048,4.6608079618525347,1.1004380388143233
7.6675838827261877,-0.0242804286877801,0.8366936281057245,1.0051756724636018,-0.1343630146885473,0.0675852655199028,7.6957275129926774,7.6630522267801666,4.5312330700912531,1.1135325727750625
7.7665840136911024,-0.0379874040255031,0.8358281196361599,1.0107048404372236,-0.1412971588016692,0.0479117763474001,7.7956720331224938,7.7219241941328143,5.6431111734726258,1.1265250554926778
7.8654794647126245,-0.0524300969612263,0.8344007930598372,1.0166664412791351,-0.1439400523633769,-0.0374786163104518,7.8956165257770961,7.7946205184336073,3.2826058076210920,1.1394073684696977
7.9644057966770845,-0.0666601771155322,0.8335988342141317,1.0203641978956497,-0.1338055938306504,-0.0716430768447110,7.9955610820927880,7.8365978707848853,-4.0518958880883424,1.1521951824234233
8.0635736486983358,-0.0790955359349688,0.8355743369040407,1.0168873890915509,-0.1296193860785120,0.0176978878117626,8.0955055718032121,7.7847502756736322,-4.3294223735191828,1.1649910677431012
8.1626155975577035,-0.0924968678263839,0.8368949448480227,1.0140569080101345,-0.1373432067674933,0.0698157307644590,8.1954500730542836,7.7289671324794416,-4.3239677409498762,1.1778757295712903
8.2615795594095314,-0.1064625958314453,0.8375620913139760,1.0118770845673692,-0.1435747842479154,0.0642942426259075,8.2953945941853657,7.6728494814140928,-4.6988095261405851,1.1908540065676447
8.3604468056442869,-0.1210972313928341,0.8375747395461767,1.0103521024353475,-0.1501949205872706,0.0656131328181447,8.3953391034695599,7.6113979491166059,-4.6977387056129105,1.2039321132573535
8.4592171814382553,-0.1363720056873667,0.8369342623024091,1.0094796926980361,-0.1566901292768021,0.0652804139123404,8.4952836173971917,7.5494603990506146,-4.7781537354823209,1.2171166588328637
8.5578859864929946,-0.1522896980097975,0.8356416278037918,1.0092592451002811,-0.1632437591130045,0.0647310782068665,8.5952281321031112,7.4859369356325303,-4.8378579683906269,1.2304112213217937
8.6564476659735732,-0.1688577309079500,0.8336978590317612,1.0096896830315951,-0.1696291611400813,0.0664970872995442,8.6951726385861914,7.4210657691530582,-4.8127670657800472,1.2438202893232366
8.7549051673361067,-0.1860341740552428,0.8311043250374828,1.0107698572597679,-0.1765357980540543,0.0332574879975100,8.7951171720722474,7.3559634060918482,-2.9110181779420796,1.2573473024056074
8.8532285387837000,-0.2039620331375300,0.8281147649397976,1.0123524480027708,-0.1762769666787989,-0.1044116851364961,8.8950616241648763,7.3163049005703815,0.0000000000000000,1.2709708880712602
8.9516950437044311,-0.2210875285178132,0.8273271878057399,1.0129315811131845,-0.1556650389569207,-0.1587944552185773,8.9950062847692553,7.3163049005703815,0.0000000000000000,1.2846314260016283
9.0506736852138996,-0.2349480248939030,0.8331343098537310,1.0099558749203159,-0.1445356908109194,-0.0153441737554706,9.0949506934915618,7.3163049005703815,7.6786521970054133,1.2982919295044983
9.1494968044696297,-0.2498777034367401,0.8383439785493885,1.0075961420595951,-0.1525979087236751,0.0703409421314590,9.1948951990975463,7.4204579099412866,4.6268029452048323,1.3118558996777436
9.2482392080710607,-0.2653323216021453,0.8429078272616759,1.0058800953552149,-0.1585960733393281,0.0626617003085428,9.2948397211666745,7.4825158076240150,4.9916940404937584,1.3252685948838459
9.3468761213559279,-0.2814464125218522,0.8468331251875033,1.0048058002224356,-0.1651232951923594,0.0647343252781726,9.3947842287122878,7.5488957879105936,4.8110608988124390,1.3385666816151416
9.4454083589233893,-0.2981887031583245,0.8501144153510916,1.0043759791719584,-0.1715357543628631,0.0644098209608260,9.4947287439985537,7.6123259202311706,4.7676115188354293,1.3517509113837223
9.5438305089743380,-0.3155664454334985,0.8527519360627981,1.0045914460209677,-0.1779981116739147,0.0645190284904044,9.5946732563403216,7.6746660599920142,4.6997970183780957,1.3648266704959227
9.6421381311335743,-0.3335808028491120,0.8547438029205526,1.0054532503649678,-0.1844324000737674,0.0649317225717396,9.6946177691847026,7.7356277689229520,4.6144898133476557,1.3777978070561940
9.7403285126543437,-0.3522236245625169,0.8560896696279086,1.0069625824824597,-0.1909772504925469,0.0578834090453581,9.7945622829142316,7.7950191058355776,4.9828696113287965,1.3906684253292765
9.8383919164089502,-0.3715232191989476,0.8569238673760906,1.0088546768594295,-0.1960026583224790,0.0260631014268344,9.8945067950650714,7.8586477084274931,6.8903860214524295,1.4034378950435258
9.9363899675492657,-0.3911519763857402,0.8585726211872338,1.0085332053982334,-0.1961869784887764,0.0114958093821099,9.9944513103522947,7.9457948870635047,4.3241172745422700,1.4160855432833614
10.0344462534047594,-0.4104877205066945,0.8635262779625990,1.0011655333952203,-0.1983005445190162,0.0444194922934467,10.0943958259421223,8.0000000000000000,0.0000000000000000,1.4286210758545110
10.1323604462439700,-0.4305305498549216,0.8678754978621441,0.9943714875333920,-0.2050659473179532,0.0660019552303874,10.1943403313820724,8.0000000000000000,0.0000000000000000,1.4411141390345048
10.2301461371123494,-0.4511912642382489,0.8715691910822416,0.9882366652413350,-0.2114936108222336,0.0647744061837351,10.2942848482773766,8.0000000000000000,-0.4609897442773467,1.4536072036464178
