# x_m,y_m,w_tr_right_m,w_tr_left_m,psi,kappa,s,velocity,acceleration,time
0.1211826039381286,-1.4958314133545063,3.4123225512317901,0.5500000000000000,-2.9051449991091252,-0.0000000000000089,0.0000000000000000,6.9787020327524152,-4.3057268836604186,0.0000000000000000
0.0240499432317921,-1.5192360014630688,3.4394600489274207,0.5504727510701856,-2.9051449991091243,-0.0876694708076134,0.0999126044121749,6.9167831604203576,0.0000000000000000,0.0143805852078148
-0.0730827174745445,-1.5426405895716315,3.4665975466230510,0.5509455021403711,-2.8876264287974736,-0.1776685688306071,0.1998252088243499,6.9167831604203576,0.0000000000000000,0.0288255377377569
-0.1693343270256817,-1.5694329589805427,3.4960492519929081,0.5511511301677461,-2.8696426293146575,-0.0924673190749799,0.2997361861978505,6.9167831604203576,4.0761887580314831,0.0432702550371537
-0.2655625483137757,-1.5963152570206958,3.5254611869012984,0.5513449143981612,-2.8691492779019003,-0.0019869558195017,0.3996487906088556,6.9754150097357073,8.4033218539373973,0.0576542428247225
-0.3617892417196121,-1.6232030236926032,3.5409199252906505,0.5508827651466998,-2.8692455854531032,0.0326857053460539,0.4995613950210306,7.0947593406913718,4.0622725440154337,0.0718562849492597
-0.4580224876829029,-1.6500667439201941,3.5562687033571292,0.5504254532856326,-2.8756807006576284,0.0637832819214695,0.5994738421589999,7.1517377807044493,-5.2299375209091572,0.0858825324242152
-0.5545872535068354,-1.6757138591925373,3.5660541527281526,0.5502128841834850,-2.8819910830510982,-0.0531839940060070,0.6993864465711750,7.0782964000316788,0.0000000000000000,0.0999250291804678
-0.6511520193307678,-1.7013609744648803,3.5758396020991765,0.5500003150813374,-2.8650531979492651,-0.1696529581574994,0.7992990509833500,7.0782964000316788,0.0000000000000000,0.1140403754114801
-0.7467926516510522,-1.7302639322040523,3.5864313129560048,0.5510516684131557,-2.8480901596958934,-0.1052154621303475,0.8992115703024833,7.0782964000316788,-1.2639114840287904,0.1281557096208085
-0.8424319121376295,-1.7591717230917077,3.5970242206709480,0.5521048979797293,-2.8440285052106216,-0.0406341273809862,0.9991241747146584,7.0604333118067109,-6.4674067282179832,0.1422888893969969
-0.9378346684594172,-1.7888506572538698,3.6069543572721390,0.5537800094503348,-2.8399704374129491,-0.0241219912354228,1.0990367617435026,6.9683116947580528,-7.3247510644936158,0.1565328701639279
-1.0332361620511437,-1.8185337086618967,3.6168809552421610,0.5554584412386845,-2.8392083236940646,-0.0075611411124512,1.1989493661556776,6.8624848243368106,-7.0310064403007946,0.1709807154885606
-1.1285935855495253,-1.8483580286171506,3.6217955544081444,0.5581883697864019,-2.8384595308204124,-0.0321522112679099,1.2988619693498846,6.7593435813843383,-5.9304047068197852,0.1856502004091376
-1.2239505192619615,-1.8781839186019573,3.6266544512511731,0.5609299844526452,-2.8327835014024503,-0.0577389379612482,1.3987745737620596,6.6711079508765625,-5.9180962436131184,0.2005287179589278
-1.3189630303425361,-1.9090887303427611,3.6274512014839941,0.5644525695179121,-2.8269218481610956,-0.0349736531714233,1.4986869586328595,6.5818765616699215,-6.9773336425741714,0.2156064364571595
-1.4139637617546372,-1.9400304425059494,3.6281090214145277,0.5680018647106128,-2.8257948915322841,-0.0104844943847486,1.5985995630450345,6.4750947422331455,-7.9088950179175113,0.2309105375517691
-1.5089065817412484,-1.9711493934010436,3.6199502118414277,0.5711552861194665,-2.8248267818995361,-0.0146507289662832,1.6985121657126727,6.3518859679598165,-7.7458800154964438,0.2464890442830130
-1.6038472158069679,-2.0022749866235459,3.6117024123147430,0.5742920544016271,-2.8228673067271748,-0.0194367666642627,1.7984247602653793,6.2288549036785561,-7.7442085575503050,0.2623724641184770
-1.6986673550709568,-2.0337657743301354,3.6034104789112531,0.5764767438158145,-2.8209428261336158,-0.0087364316822707,1.8983373646775541,6.1033716353249039,-8.1741010104570240,0.2785759621804333
-1.7934874943349459,-2.0652565620367254,3.5951185455077628,0.5786614332300017,-2.8211215474418854,0.0018018296051416,1.9982499690897293,5.9680611489429864,-8.1106493173288765,0.2951295239982793
-1.8883188836024820,-2.0967134549442994,3.5855824645599461,0.5799513538351135,-2.8213028771105613,0.0114524871391188,2.0981625734087519,5.8306982159512790,-7.8145957930009970,0.3120656443528142
-1.9831504370589601,-2.1281698531719235,3.5760282258161680,0.5812282156759803,-2.8234100430749511,0.0211313052390366,2.1980751778209267,5.6952162776564608,-7.4414101122773326,0.3294026815948631
-2.0781135421914656,-2.1592268132092900,3.5602260542663355,0.5830373482452295,-2.8255254443370608,-0.0342048770711951,2.2979877701362592,5.5631382599828303,-5.8303139381487306,0.3471517393246232
-2.1730773018229894,-2.1902817075776988,3.5443347289719607,0.5848497034305218,-2.8165750478828704,-0.0896365199228992,2.3979003424561971,5.4574228325921696,-5.7864178054253363,0.3652837693511621
-2.2674692894528237,-2.2230335196147917,3.5265644673066476,0.5846358422532081,-2.8076138109018158,-0.0091827873432740,2.4978129468683723,5.3504384705726951,-6.5754628236264772,0.3837726454774533
-2.3618612770826570,-2.2557853316518846,3.5087942056413342,0.5844219810758944,-2.8147400954844111,0.0704616724605981,2.5977255512805466,5.2262078599627451,-6.5686012592705909,0.4026657050144297
-2.4567103107065651,-2.2871884840381238,3.4827105952040935,0.5848902954997036,-2.8216938182568669,-0.0555397658744667,2.6976379987492312,5.0990860493834740,-3.9672796514728725,0.4220186548376295
-2.5515476898389768,-2.3186241029280015,3.4565461501813695,0.5853594779261966,-2.8036419150051302,-0.1798133132936316,2.7975495927495997,5.0207493535695846,-3.8356342165851842,0.4417643503004655
-2.6452015394520974,-2.3534304956320264,3.4333993580224393,0.5852166124524034,-2.7857627670640634,-0.0409365569861395,2.8974621971617749,4.9438312737255146,-6.2151909009727504,0.4618178995965579
-2.7388553890652179,-2.3882368883360514,3.4102525658635097,0.5850737469786103,-2.7954617589568249,0.0984852060900947,2.9973748015739501,4.8165875724828631,-6.1784623184834215,0.4822909153526366
-2.8331662369230641,-2.4212199655510953,3.3842777382400171,0.5871313725409854,-2.8054425401593148,0.0207249336082665,3.0972868599364891,4.6866736677398650,-7.2652019834177874,0.5033178146111058
-2.9274961703564109,-2.4541500760714694,3.3582207571483655,0.5892529216193627,-2.7996031118261251,-0.0601954670422682,3.1971994643486634,4.5291433587819565,-7.2641461184233380,0.5250006679326594
-3.0214158256390489,-2.4882324800157090,3.3298189788008399,0.5858508546595909,-2.7934139733919459,0.0602297388351082,3.2971119856211639,4.3659570837597172,-5.1574689993978042,0.5474652869480129
-3.1153309250260000,-2.5223276794954441,3.3013911628695745,0.5823874512176224,-2.8116385269588058,0.1853770202068653,3.3970245900333391,4.2462911979069302,-5.0415013947831016,0.5706677309892199
-3.2104284598458386,-2.5529643197460832,3.2665302335551920,0.5807827818490213,-2.8304566192374532,0.0192566499189834,3.4969352744202329,4.1259652480409184,-6.0879746687427980,0.5945348174866121
-3.3055599517974410,-2.5835016372360982,3.2314845583572520,0.5792314915285162,-2.8154864540768694,-0.1525916630021271,3.5968478788324081,3.9758091526810579,-5.2013617559300229,0.6191991933308152
-3.3996994647380259,-2.6169719894039645,3.1994847957632726,0.5778366580686957,-2.7999649706453704,-0.2233685085756403,3.6967604024264578,3.8428760141619689,-4.4349516160247626,0.6447565655646410
-3.4938373066205228,-2.6504472824740750,3.1674901642223059,0.5764420881714098,-2.7708518132581825,-0.2928396764890256,3.7966730068386330,3.7257859476120396,-4.3195015760525663,0.6711582214760266
-3.5858678938814457,-2.6893385801962419,3.1387689427683720,0.5744538857175215,-2.7414487582277456,-0.1695700212289583,3.8965837771794956,3.6080952686312733,-6.2330830506078234,0.6984045777763105
-3.6778756145315055,-2.7282886490178035,3.1100832423159774,0.5724592415339396,-2.7369677593592678,-0.0436640401661406,3.9964963815916708,3.4311549579277458,-6.5162724874294549,0.7267918636935538
-3.7695555894845780,-2.7680038556081685,3.0722711623107823,0.5666392350194681,-2.7327235851412337,0.1894549244254837,4.0964089205540626,3.2358475995838312,-4.3873767310426555,0.7567641152715352
-3.8612293778066813,-2.8077335051799683,3.0342868098916225,0.5607470197611877,-2.7748256167956078,0.4286661191981977,4.1963215249662378,3.0974184761282659,-4.0651202754345448,0.7883157991003064
-3.9559140559932673,-2.8395931779127985,2.9829804063939345,0.5572249701004225,-2.8183769444714981,0.0765596252444617,4.2962226111962707,2.9634070516750595,-6.2758168414285551,0.8212819637825755
-4.0506963305156054,-2.8711977496832821,2.9312421759518861,0.5537797480513794,-2.7901232780698879,-0.2954659116880022,4.3961352156084441,2.7436681546855572,-5.5616032881980511,0.8562955568401260
-4.1434404674388512,-2.9083580915865417,2.8639467821808959,0.5523521363409810,-2.7593356473579838,-0.4579527386912080,4.4960470064241678,2.5330565438565880,-5.2722740788924414,0.8941644230492453
-4.2360869019595926,-2.9457307206142933,2.7966491006522189,0.5509519778288162,-2.6986187717328196,-0.6018539964832444,4.5959473328993701,2.3158090704715883,-2.8745724254415386,0.9353700717189057
-4.3236477035302556,-2.9938517612174098,2.7333819350225079,0.5505942285317842,-2.6390774363543854,-1.1747640263543078,4.6958599373115453,2.1882777738861003,0.0000000000000000,0.9797353816539647
-4.4112085051009178,-3.0419728018205259,2.6701147693927978,0.5502364792347521,-2.4638713048472365,-1.7750640447620303,4.7957725417237196,2.1882777738861003,0.0000000000000000,1.0253934811898122
-4.4768225047658117,-3.1171420918482751,2.6117715106004824,0.5501158758120198,-2.2846140927383511,-1.4350362676924202,4.8955503905444901,2.1882777738861003,1.6282432814863181,1.0709900000648260
-4.5419497410334024,-3.1929112915046605,2.5535374603220307,0.5500005321046634,-2.1773082621460222,-1.0574333487436172,4.9954629949566653,2.2613986091407581,3.0923665690220039,1.1158978072003238
-4.5901086934166875,-3.2804399641053057,2.5036602557247400,0.5500000000000000,-2.0733227063930499,-0.9322955549398261,5.0953657137479293,2.3941168152186685,3.1562726967589323,1.1588158129139492
-4.6381890047674350,-3.3680231370373188,2.4538217816777861,0.5500000000000000,-1.9910213245145911,-0.8218147162516892,5.1952783181601045,2.5223992894958616,3.2712053671269197,1.1994594728895027
-4.6713571990732738,-3.4622680494976095,2.3866750764609113,0.5500317365439238,-1.9091046259776387,-0.6748813613958732,5.2951894418559062,2.6488030851288289,3.7649258831089010,1.2381008241489582
-4.7045088526824106,-3.5565203512382229,2.3195091727491892,0.5500635082903976,-1.8561640148498810,-0.5341130601237071,5.3951020462680814,2.7872001873902850,-1.2838340750926838,1.2748604062916946
-4.7275293808009708,-3.6537369951977854,2.2484742275094809,0.5500539699054530,-1.8023794029371150,-0.6643175420394153,5.4950071040860804,2.7407958423762131,-3.0497700724033039,1.3110055327643051
-4.7503699319493293,-3.7510003599734159,2.1774757860162910,0.5500477321892552,-1.7234238827404695,-0.7895952688039583,5.5949163274052420,2.6272726411842111,-2.8726767712479235,1.3482290606030916
-4.7578169994757680,-3.8506350412128345,2.1383841166249717,0.5514273408181110,-1.6446010331566914,-0.7118438743183477,5.6948289318174172,2.5156566330514147,-3.8453458488940675,1.3870834173653768
-4.7651038433626987,-3.9502715160426756,2.0996149700946880,0.5527717642745842,-1.5811866687195160,-0.6478035786161082,5.7947315104145192,2.3580094070234803,-2.7933277012133044,1.4280803087303691
-4.7598890422229907,-4.0500479379543526,2.0860110634379425,0.5513708217121892,-1.5151600425414498,-1.1408710214282911,5.8946441148266935,2.2365220929830847,-0.6585213934701870,1.4715722749567544
-4.7539981760626588,-4.1496774661415108,2.0731695826685645,0.5500000000000000,-1.3533363150822000,-1.6099663022663033,5.9944476477847743,2.2069403139205717,-0.0524299147778593,1.5164937905762044
-4.7173391010773100,-4.2426217545170877,2.0950266563288351,0.5500000000000000,-1.1936237913565497,-1.3505073411125417,6.0943602521969495,2.2045654289539023,-1.4168000433004337,1.5617901633956444
-4.6804159097973024,-4.3354265955464424,2.1169231995653939,0.5500000000000000,-1.0835146239659172,-1.1267465548258349,6.1942404833379712,2.1394130267266744,-1.7753786314339119,1.6077757649174056
-4.6243421209163591,-4.4181203602506756,2.1416816108057528,0.5500000000000000,-0.9685079022181018,-1.5926355840734192,6.2941530877501455,2.0548291153181624,0.0000000000000000,1.6554185099132697
-4.5673557257677659,-4.4998773924233095,2.1657707627820662,0.5500000000000000,-0.7656718206967867,-2.0131099912783164,6.3938108096873272,2.0548291153181624,0.0000000000000000,1.7039177847163480
-4.4832272888304354,-4.5537748378071621,2.1699553145422912,0.5500000000000000,-0.5667508842815367,-1.3819694110147425,6.4937234140995024,2.0548291153181624,2.6648791946205614,1.7525411002355584
-4.3988118978069641,-4.6071376863675990,2.1727973319074869,0.5500736426875080,-0.4895815902040122,-0.7791730987398883,6.5935910857862385,2.1805029819162325,4.7953488409196288,1.7997004111911021
-4.3073993918102689,-4.6474648765477733,2.1429028664302017,0.5519429954774935,-0.4110874674864378,-0.8729090175331076,6.6935036901984137,2.3901516348692087,3.5132236836125332,1.8434195773889821
-4.2157102242643107,-4.6869562305334274,2.1113824235104546,0.5539349746312634,-0.3152225390492760,-0.9340745415663905,6.7933359018582333,2.5326449846848544,2.5085744310983258,1.8839787226777684
-4.1182898277373221,-4.7091326788727796,2.0461787706701413,0.5584672409042056,-0.2245109199837270,-0.3939645398863673,6.8932485062704076,2.6297465710587002,5.7755118177626290,1.9226865980232617
-4.0209015687206282,-4.7314428768995747,1.9801258173056022,0.5638793508052814,-0.2364991049444984,0.1167106813630840,6.9931595563614639,2.8407115180966414,7.5581865921048212,1.9592140874812725
-3.9240408279205798,-4.7559484969098831,1.9001320983427810,0.5837335732837950,-0.2478324748532605,0.0609406949337706,7.0930721607736391,3.0951507464334713,7.9161906933201402,1.9928781450215578
-3.8271817448912078,-4.7804606462288035,1.8196865809452041,0.6039877433486504,-0.2486765917028484,0.0034146560019326,7.1929847597265431,3.3409298877858076,8.4618862499028733,2.0239257979740986
-3.7303625133168548,-4.8051297548015848,1.7283801976548800,0.6338563271990116,-0.2485148091832685,-0.0768567185530798,7.2928973641387183,3.5850677402296367,7.5121828309295164,2.0527772674022811
-3.6334981772520942,-4.8296098842793853,1.6382548029243484,0.6637739432601886,-0.2333188942506506,-0.1500104873891158,7.3928072051981291,3.7886399521899730,6.3467805630912935,2.0798762100853825
-3.5359740416117886,-4.8513255810914861,1.5654051992162485,0.6944088145567362,-0.2185393467467909,-0.1256196389288835,7.4927198096103043,3.9524725727969430,6.5375650463762014,2.1056897101707190
-3.4384268677432694,-4.8729325354146926,1.4931149542940843,0.7252711938798713,-0.2082170600334372,-0.1053331772078554,7.5926313284900626,4.1144131471972294,6.7168783121264894,2.1304604884729632
-3.3404752364368058,-4.8926304146108492,1.4306447710257790,0.7601276873637411,-0.1974912369576773,-0.1299216557815424,7.6925439329022378,4.2744119077596903,6.1262537652193192,2.1542808932990569
-3.2424886552164360,-4.9121396749667436,1.3685233830993653,0.7949625883648063,-0.1822557938055374,-0.1487497435995151,7.7924537989760658,4.4152852165667085,5.6001618963463837,2.1772759101896075
-3.1439823812220355,-4.9288442403356445,1.3115884576998915,0.8294764168357114,-0.1677676957074627,-0.0957117241997671,7.8923664033882410,4.5402419609553970,6.5270179406985394,2.1995889694728064
-3.0454691869503487,-4.9455068166747020,1.2547346893759037,0.8642525239185764,-0.1631301965517036,-0.0451609969814005,7.9922788195128946,4.6816724927218498,7.5101586791219841,2.2212574454983702
-2.9468122174997169,-4.9612970319753469,1.1995670345656106,0.9044777124195506,-0.1587433985581908,-0.0172973387226941,8.0921914239250690,4.8392950267025423,8.0949174929084418,2.2422453554367952
-2.8481564465361640,-4.9770946910165677,1.1444235837153252,0.9447724762706179,-0.1596737523457472,0.0092798383571117,8.1921040216072214,5.0036331625076516,-1.7598019936644422,2.2625467526961343
-2.7495290288274412,-4.9930684506408065,1.0898527389929373,0.9867132216800975,-0.1605977441333033,0.0086343556160950,8.2920166260193966,4.9683691513486412,-8.2868404200683621,2.2825853770902231
-2.6509026182406057,-5.0090483971582609,1.0353073917061959,1.0287160671190221,-0.1613991142181224,0.0086730673283773,8.3919292256049527,4.7988303248430677,-7.9295246561477875,2.3030441789871436
-2.5523009289823548,-5.0251802103186947,0.9813879175065705,1.0722432516200466,-0.1623308415814824,0.0266027139665823,8.4918418300171279,4.6307940535442578,-7.6403235735884092,2.3242353951804788
-2.4537045974241911,-5.0413438935663475,0.9274650256004986,1.1158792132334068,-0.1667150034616578,0.0431618068045603,8.5917542979721215,4.4629056003815473,-7.6366171521721018,2.3462093929497723
-2.3552481456095791,-5.0583396464623069,0.8734529036342337,1.1623551461647332,-0.1709556527497014,0.0235784369237564,8.6916669023842950,4.2885356219544910,-8.0647319224336638,2.3690427987566172
-2.2567923148015914,-5.0753389867726826,0.8195086984398204,1.2088731165917372,-0.1714265695048380,0.0053937485468535,8.7915795051483059,4.0963399598719690,-8.1184011690935662,2.3928744231591459
-2.1583519138220013,-5.0924274617017460,0.7672519859239398,1.2564355707926822,-0.1720334596705326,0.0251751801049211,8.8914921095604811,3.8932942167154438,-7.8869516200011232,2.4178849811406256
-2.0599169169866567,-5.1095462709746062,0.7155834269889478,1.3044064032299583,-0.1764572018146315,0.0451377233930652,8.9914045824199533,3.6853399000031528,-7.6153090865802131,2.4442518623808911
-1.9616315567760894,-5.1275050150482535,0.6802003912912984,1.3636849169829608,-0.1810531087354181,0.0733574588525249,9.0913171868321285,3.4727509916588302,-7.4412112273705393,2.4721678544867070
-1.8633585642714081,-5.1455277945169628,0.6449054911059908,1.4232491175295297,-0.1911158247680635,0.1001401713726757,9.1912291562632369,3.2516253339996672,-7.4358040510271204,2.5018842072285579
-1.7654545096081327,-5.1654607973242195,0.6122397386360370,1.4913355670612607,-0.2010635758045565,0.0873733236434958,9.2911417606754121,3.0144993308068604,-7.7019976596549551,2.5337739667711121
-1.6675591961380227,-5.1854351428602179,0.5800915519699181,1.5604996375050488,-0.2085751904581263,0.0751951983272423,9.3910540566104093,2.7473910672692372,-7.8072190803183075,2.5684543542940537
-1.5699656359244107,-5.2068366737693719,0.5658101672148805,1.6668640778888479,-0.2160894488168834,0.1156933598047556,9.4909666610225827,2.4470550654713050,-7.7085036064377395,2.6069233659495699
-1.4723818933124082,-5.2282798568579594,0.5517129120953355,1.7737507479354959,-0.2316935640492015,0.1779549230169758,9.5908786068705947,2.1089654581470829,-4.0774777868404550,2.6507826705027737
-1.3755036480263578,-5.2527161845427752,0.5508472964956179,1.9181650795498522,-0.2516492112753370,1.2173355610502352,9.6907912112827699,1.9060305489224170,-0.6091100587958188,2.7005523859576592
-1.2790485569084320,-5.2779857420210368,0.5500740897958523,2.0623234687461731,-0.4747015707428361,2.2471670833959294,9.7905014672132129,1.8738952515337706,-0.4371904579565281,2.7533101707366141
-1.2021652222372261,-5.3417939027080461,0.5535749860580909,2.1946439911612887,-0.7002351321306128,2.3547087855622988,9.8904140716253881,1.8504382559717134,0.0000000000000000,2.8069641220870105
-1.1265244292405667,-5.4065163611886842,0.5572797595105377,2.3209855952490521,-0.9443817459995150,2.4823883750337044,9.9899656974129236,1.8504382559717134,0.0000000000000000,2.8607630669943931
-1.0884767103874888,-5.4989008815938956,0.5671528333787268,2.2664351418848256,-1.1953828184134196,1.8375919158478291,10.0898783018250988,1.8504382559717134,2.2078615732340978,2.9147570892697856
