# x_m,y_m,w_tr_right_m,w_tr_left_m,psi,kappa,s,velocity,acceleration,time
-0.0003980545502619,0.3694753292880549,1.2694759276255843,0.7305240723744156,-0.0003514189402802,0.0000518427424375,0.0000000000000000,8.0000000000000000,0.0000000000000000,0.0000000000000000
0.0995704668500169,0.3694401984547569,1.2694408072609740,0.7305591927390264,-0.0003566015829071,0.0000780391192415,0.0999685275730990,8.0000000000000000,0.0000000000000000,0.0124960659466374
0.1995389878807846,0.3694040314192201,1.2694046508209280,0.7305953491790719,-0.0003670218519676,0.0001048341618455,0.1999370551461982,8.0000000000000000,0.0000000000000000,0.0249921318932748
0.2995075085272084,0.3693668171881487,1.2693674470798062,0.7306325529201940,-0.0003775618165052,0.0001056135312127,0.2999055827192972,8.0000000000000000,0.0000000000000000,0.0374881978399122
0.3994760287733661,0.3693285428232870,1.2693291834284806,0.7306708165715192,-0.0003881379103818,0.0000101870357836,0.3998741102923962,8.0000000000000000,0.0000000000000000,0.0499842637865495
0.4994445486102690,0.3692892140393059,1.2692898663439547,0.7307101336560450,-0.0003795985824404,-0.0000843369609354,0.4998426378655004,8.0000000000000000,0.0000000000000000,0.0624803297331876
0.5994130694955168,0.3692526470024061,1.2692533181775902,0.7307466818224098,-0.0003712758267724,0.0000135356138091,0.5998111654385941,8.0000000000000000,0.0000000000000000,0.0749763956798243
0.6993815899732133,0.3692149822455606,1.2692156739894094,0.7307843260105903,-0.0003823048532050,0.0001109115304059,0.6997796930116936,8.0000000000000000,0.0000000000000000,0.0874724616264617
0.7993501100275489,0.3691762100977514,1.2691769220038234,0.7308230779961763,-0.0003934511515435,0.0001109939204460,0.7997482205847930,8.0000000000000000,0.0000000000000000,0.0999685275730991
0.8993186296407576,0.3691363167830080,1.2691370494937910,0.7308629505062091,-0.0004044966507981,-0.0000169986947753,0.8997167481578900,8.0000000000000000,0.0000000000000000,0.1124645935197363
0.9992871488142054,0.3690953362307809,1.2690960923338299,0.7309039076661701,-0.0003900524825688,-0.0001426711208751,0.9996852757310102,8.0000000000000000,0.0000000000000000,0.1249606594663763
1.0992556695381324,0.3690583308402836,1.2690591043849022,0.7309408956150976,-0.0003759714070359,-0.0000122107012960,1.0996538033040875,8.0000000000000000,0.0000000000000000,0.1374567254130109
1.1992241898260192,0.3690201656166112,1.2690209608453853,0.7309790391546146,-0.0003876111109105,0.0001169984834451,1.1996223308771889,8.0000000000000000,0.0000000000000000,0.1499527913596486
1.2991927096614175,0.3689808330181681,1.2689816490554660,0.7310183509445339,-0.0003993637392725,0.0001159863121942,1.2995908584502893,8.0000000000000000,0.0000000000000000,0.1624488573062862
1.3991612290245934,0.3689403180087727,1.2689411561504498,0.7310588438495500,-0.0004108010726078,-0.0000538908110881,1.3995593860233793,8.0000000000000000,0.0000000000000000,0.1749449232529224
1.4991297479341767,0.3688986986637713,1.2688995640632772,0.7311004359367229,-0.0003885889692041,-0.0002192339611162,1.4995279135965389,8.0000000000000000,0.0000000000000000,0.1874409891995674
1.5990982689985032,0.3688626246765930,1.2688635050219426,0.7311364949780577,-0.0003669680800342,-0.0000468571519434,1.5994964411695767,8.0000000000000000,0.0000000000000000,0.1999370551461971
1.6990667896142659,0.3688253281481648,1.2688262315148806,0.7311737684851193,-0.0003792204882320,0.0001230942928906,1.6994649687426846,8.0000000000000000,0.0000000000000000,0.2124331210928356
1.7990353097646552,0.3687868044507435,1.2687877293132472,0.7312122706867530,-0.0003915791904601,0.0001206092881117,1.7994334963157865,8.0000000000000000,0.0000000000000000,0.2249291870394733
1.8990038294279743,0.3687470369599700,1.2687479854830941,0.7312520145169059,-0.0004033347541204,-0.0000925551911683,1.8994020238888620,8.0000000000000000,0.0000000000000000,0.2374252529861078
1.9989723486451292,0.3687061628899542,1.2687071436640176,0.7312928563359821,-0.0003730739780994,-0.0002982250422088,1.9993705514620952,8.0000000000000000,0.0000000000000000,0.2499213189327619
2.0989408705320423,0.3686724456492152,1.2686734370213821,0.7313265629786179,-0.0003437085174103,-0.0000825218655455,2.0993390790350595,8.0000000000000000,0.0000000000000000,0.2624173848793824
2.1989093919772449,0.3686374428225090,1.2686384577919829,0.7313615422080172,-0.0003565747993171,0.0001291951249903,2.1993076066081803,8.0000000000000000,0.0000000000000000,0.2749134508260225
2.2988779129635697,0.3686011531354126,1.2686021893999413,0.7313978106000586,-0.0003695394102401,0.0001248766065944,2.2992761341812851,8.0000000000000000,0.0000000000000000,0.2874095167726606
2.3988464334675004,0.3685635582027483,1.2685646189789643,0.7314353810210357,-0.0003815422602962,-0.0001316210967033,2.3992446617543357,8.0000000000000000,0.0000000000000000,0.2999055827192920
2.4988149535541044,0.3685248687013271,1.2685259669644069,0.7314740330355937,-0.0003432234757701,-0.0003769489368656,2.4992131893276839,8.0000000000000000,0.0000000000000000,0.3124016486659605
2.5987834766454458,0.3684949351131590,1.2684960420336453,0.7315039579663549,-0.0003061761999188,-0.0001178698207834,2.5991817169005342,8.0000000000000000,0.0000000000000000,0.3248977146125668
2.6987519993241116,0.3684636527345174,1.2684647871720502,0.7315352128279496,-0.0003196569309121,0.0001352982066725,2.6991502444736764,8.0000000000000000,0.0000000000000000,0.3373937805592095
2.7987205215723225,0.3684310238488251,1.2684321826402418,0.7315678173597583,-0.0003332273249275,0.0001287902136508,2.7991187720467843,8.0000000000000000,0.0000000000000000,0.3498898465058480
2.8986890433650117,0.3683970282457117,1.2683982158187921,0.7316017841812077,-0.0003454068669611,-0.0001710857102839,2.8990872996197981,8.0000000000000000,0.0000000000000000,0.3623859124524748
2.9986575647891609,0.3683619642183917,1.2683631983320791,0.7316368016679206,-0.0002990209518356,-0.0004554101002660,2.9990558271933128,8.0000000000000000,0.0000000000000000,0.3748819783991641
3.0986260893051623,0.3683372428781456,1.2683384677054914,0.7316615322945085,-0.0002543535126300,-0.0001529089190467,3.0990243547659997,8.0000000000000000,0.0000000000000000,0.3873780443457500
3.1985946134625012,0.3683111095266601,1.2683123505853042,0.7316876494146957,-0.0002684487928559,0.0001414011781181,3.1989928823391742,8.0000000000000000,0.0000000000000000,0.3998741102923968
3.2985631372422972,0.3682835700176904,1.2682848232363511,0.7317151767636489,-0.0002826248477772,0.0001323593759249,3.2989614099122870,8.0000000000000000,0.0000000000000000,0.4123701762390359
3.3985316606183082,0.3682546023476381,1.2682558735074199,0.7317441264925799,-0.0002949123366993,-0.0002106850340001,3.3989299374852484,8.0000000000000000,0.0000000000000000,0.4248662421856561
3.4985001836917617,0.3682246061144198,1.2682259209687781,0.7317740790312219,-0.0002405011025157,-0.0005331133457509,3.4988984650589883,8.0000000000000000,0.0000000000000000,0.4373623081323735
3.5984687096276802,0.3682065172659905,1.2682078688539202,0.7317921311460797,-0.0001883232242907,-0.0001874014167136,3.5988669926314540,8.0000000000000000,0.0000000000000000,0.4498583740789318
3.6984372352865575,0.3681869533237631,1.2681883746058453,0.7318116253941548,-0.0002030326151279,0.0001475017491667,3.6988355202046730,8.0000000000000000,0.0000000000000000,0.4623544400255841
3.7984057606477180,0.3681659235231032,1.2681674095065585,0.7318325904934417,-0.0002178142896481,0.0001355524726320,3.7988040477777920,8.0000000000000000,0.0000000000000000,0.4748505059722240
3.8983742856842056,0.3681434041764677,1.2681449620939467,0.7318550379060531,-0.0002301345773237,-0.0002515672061835,3.8987725753506828,8.0000000000000000,0.0000000000000000,0.4873465719188353
3.9983428104977476,0.3681199110938323,1.2681215641564807,0.7318784358435195,-0.0001675166832722,-0.0006122624730637,3.9987411029247184,8.0000000000000000,0.0000000000000000,0.4998426378655898
4.0983113375697950,0.3681099113843593,1.2681113727184530,0.7318886272815470,-0.0001077206214828,-0.0002224364571692,4.0987096304968942,8.0000000000000000,0.0000000000000000,0.5123387038121118
4.1982798644772785,0.3680983737500369,1.2680996839094572,0.7319003160905428,-0.0001230433930688,0.0001535972881899,4.1986781580701722,8.0000000000000000,0.0000000000000000,0.5248347697587715
4.2982483911968874,0.3680853104507567,1.2680864635580293,0.7319135364419702,-0.0001384304109620,0.0001385361208226,4.2986466856432983,8.0000000000000000,0.0000000000000000,0.5373308357054123
4.3982169177015003,0.3680706963814158,1.2680717013278260,0.7319282986721735,-0.0001507418970974,-0.0002888353254665,4.3986152132161020,8.0000000000000000,0.0000000000000000,0.5498269016520128
4.4981854440704065,0.3680551715598782,1.2680561035917239,0.7319438964082756,-0.0000806815265657,-0.0006835775457255,4.4985837407904885,8.0000000000000000,0.0000000000000000,0.5623229675988111
4.5981539716404045,0.3680545651546519,1.2680562146559613,0.7319437853440383,-0.0000140694156410,-0.0002534706416182,4.5985522683623259,8.0000000000000000,0.0000000000000000,0.5748190335452907
4.6981224991893953,0.3680523585623475,1.2680547761322456,0.7319452238677543,-0.0000300033529148,0.0001596867016326,4.6985207959356696,8.0000000000000000,0.0000000000000000,0.5873150994919587
4.7980910266906145,0.3680485663726267,1.2680517452595796,0.7319482547404200,-0.0000459967045114,0.0001404157968871,4.7984893235088153,8.0000000000000000,0.0000000000000000,0.5998111654386019
4.8980595541171974,0.3680431621167046,1.2680471123988915,0.7319528876011089,-0.0000580776738404,-0.0003463948046409,4.8984578510814742,8.0000000000000000,-3.3770506390930182,0.6123072313851843
4.9980280814994273,0.3680369544935558,1.2680415587046341,0.7319584412953659,0.0000232604526469,-0.0007921466773203,4.9984263786564380,7.9576882597980401,-8.4498324762840085,0.6248364305959263
5.0979966084810089,0.3680478127430908,1.2680493699116455,0.7319506300883547,0.0001003018000669,-0.0003025714406657,5.0983949062277132,7.8508195634832578,-8.4813503708287428,0.6374838643308233
5.1979651356315255,0.3680570085400526,1.2680555708112049,0.7319444291887952,0.0000837556954645,0.0001657663950621,5.1983634338011759,7.7420689483857394,-8.4900639719520736,0.6503061874683702
5.2979336629195704,0.3680645586101736,1.2680601185876770,0.7319398814123231,0.0000671589551959,0.0001439727893984,5.2983319613743287,7.6316546838154853,-8.4799550693816670,0.6633113032054272
5.3979021903193098,0.3680704361037706,1.2680630086004971,0.7319369913995030,0.0000549701999311,-0.0003544845596193,5.3983004889468473,7.5197537172881157,-8.4557356274872379,0.6765072418173436
5.4978707177640675,0.3680755491900631,1.2680659390257101,0.7319340609742899,0.0001380335541417,-0.0008069182419649,5.4982690165223644,7.4064891202359133,-8.4557311080215847,0.6899022439841581
5.5978392428052892,0.3680980341259051,1.2681007742175596,0.7318992257824403,0.0002163030569726,-0.0003057547181877,5.5982375440922434,7.2914653610492772,-8.4837439547265365,0.7035052970752761
5.6978077682271477,0.3681187961859548,1.2681339847484612,0.7318660152515387,0.0001991652520936,0.0001719106441642,5.6982060716700964,7.1742074355554024,-8.4911517878110132,0.7173267803873163
5.7977762939671740,0.3681378546396292,1.2681654805792437,0.7318345194207559,0.0001819317490321,0.0001193993093354,5.7981745992268179,7.0548959202388133,-8.4544863867133895,0.7313780561503830
5.8977448201020781,0.3681551710839001,1.2681952596167900,0.7318047403832100,0.0001752929057932,-0.0009465991175417,5.8981431268614903,6.9340602343380322,-8.4112278423004145,0.7456705489611443
5.9977133458688243,0.3681729021867917,1.2682244432831815,0.7317755567168183,0.0003711919888343,-0.0019132146924765,5.9981116542006916,6.8117160255261293,-8.4112093442857834,0.7602158937200425
6.0976818584273955,0.3682293861142062,1.2682721605811820,0.7317278394188177,0.0005578154186254,-0.0009041749199720,6.0980801827164566,6.6871341223304990,-8.4595634233267134,0.7750273076435666
6.1976503672489249,0.3682844301516392,1.2683184231987181,0.7316815768012817,0.0005519700572700,-0.0004387821366549,6.1980487066919876,6.5594498726815633,-7.9412051790109759,0.7901207874438190
6.2976188932321424,0.3683397453819656,1.2683663559356915,0.7316336440643083,0.0006455442313178,-0.0134848731597727,6.2980172479788941,6.4372852380961545,-4.2616969992826439,0.8055044265554611
6.3975873403056607,0.3684134983291519,1.2684396378877834,0.7315603621122165,0.0032480953521277,0.1044262410946615,6.3979857222584791,6.3707590240794953,-0.4260135896749418,0.8211146902668083
6.4975543768019364,0.3689891571806672,1.2680297763767483,0.7319702236232517,-0.0202331427014302,0.1993508250835907,6.4979544162029388,6.3640705918905027,-0.1566951472329765,0.8368147344698490
6.5974160100884163,0.3643697845172675,1.2538255994243355,0.7461744005756645,-0.0366095326884144,0.0391964825333120,6.5979228332477575,6.3616087090381912,-6.9122669352236752,0.8525260241669776
6.6973481042743259,0.3616715327237314,1.2412877222927006,0.7587122777072995,-0.0280699671699740,-0.0358896261421771,6.6978913483468769,6.2520434454620082,-7.0903057475788032,0.8683768679788475
6.7972741908331420,0.3587582980611693,1.2286371687160265,0.7713628312839739,-0.0294338663994396,0.0121217891855818,6.7978598919551496,6.1376243095597518,-3.9991462648637772,0.8845142730465102
6.8971985060622893,0.3557874633734334,1.2159881827432812,0.7840118172567190,-0.0304935614774182,-0.1220707716528079,6.8978283601476544,6.0721376065555699,0.0000000000000000,0.9008894438122168
6.9971184343467661,0.3526624457943155,1.2040117330754292,0.7959882669245713,-0.0050273717245710,-0.2305343874982549,6.9977971442917299,6.0721376065555699,0.0000000000000000,0.9173529679649217
7.0970642457137885,0.3547826555398574,1.2057144968223030,0.7942855031776972,0.0155988111708179,-0.0762257656763326,7.0977654417623661,6.0721376065555699,5.6894908378745193,0.9338164119690082
7.1970278124990266,0.3557810473818959,1.2064768078166048,0.7935231921833953,0.0102129677443976,0.0261343102859865,7.1977339941710961,6.1650949253808331,7.5066768001258248,0.9501548368780446
7.2969908863693416,0.3568245708664075,1.2072364108237115,0.7927635891762888,0.0103735936713301,-0.0000523253134359,7.2977025146106067,6.2856390435029637,8.4979326656818532,0.9662130902612340
7.3969541042506908,0.3578550758936793,1.2079949737934843,0.7920050262065158,0.0102234295131978,0.0062597197756632,7.3976710440076392,6.4193698949519407,8.2420475279214855,0.9819499590633413
7.4969174939910559,0.3588685776599192,1.2087593340798928,0.7912406659201074,0.0091220437228943,0.0105517443902442,7.4976395714260935,6.5464647373046878,8.0477923261878335,0.9973702586821179
7.5968827372395360,0.3596788842129284,1.2096020904729090,0.7903979095270912,0.0081137448174642,0.0050861492227543,7.5976080987456340,6.6682270845269453,8.2738430908076808,1.0125001654052372
7.6968479677662929,0.3604907981039902,1.2104425768979554,0.7895574231020444,0.0081051340262139,0.0001863517361012,7.6975766263852572,6.7911339461269167,8.4914055510557365,1.0273550351738605
7.7968132251913689,0.3612993830991110,1.2112807630035007,0.7887192369964993,0.0080764862001175,0.0001209878892329,7.7975451539414635,6.9150015830714482,8.4942146922293293,1.0419424478465635
7.8967785020025785,0.3621055694151957,1.2121165830748084,0.7878834169251917,0.0080809440639349,-0.0015816350935502,7.8975136815104836,7.0367290103538345,8.4216844602741716,1.0562730754199099
7.9967437522625922,0.3629150456736807,1.2129525950766096,0.7870474049233903,0.0083927136630806,-0.0029437441195534,7.9974822091147262,7.1553729431831528,8.3492821793170240,1.0703609854323275
8.0967085069250224,0.3637835640973496,1.2138125090712630,0.7861874909287369,0.0086695075943033,-0.0012330433998334,8.0974507366570094,7.2710860844195908,8.4348106072271527,1.0842200380731741
8.1966732937271924,0.3646483797779574,1.2146699922138131,0.7853300077861870,0.0086392447292816,0.0002790401962317,8.1974192642372667,7.3861440576721691,8.4847769274822795,1.0978608865296877
8.2966381008033601,0.3655108477605352,1.2155248150574114,0.7844751849425885,0.0086137171191998,0.0002744090291793,8.2973877918086796,7.5001030228331196,8.4845640680498562,1.1112918778374068
8.3966029316217092,0.3663705597157602,1.2163769610028365,0.7836230389971635,0.0085843801960823,0.0003906505572626,8.3973563193820464,7.6123533882157748,8.4773626111553462,1.1245218286613217
8.4965677891320155,0.3672271623771536,1.2172268786357636,0.7827731213642367,0.0085356115971893,0.0004799518204879,8.4973248469553546,7.7228791925657250,8.4713742993130765,1.1375595869146384
8.5965327033281937,0.3680771240388246,1.2180787610465671,0.7819212389534332,0.0084884200424820,0.0003788921227128,8.5972933745281637,7.8317689351388271,8.4767600436628676,1.1504134331414464
8.6964976412419919,0.3689242917023320,1.2189277930410551,0.7810722069589451,0.0084598570219561,0.0002915296144927,8.6972619021013937,7.9392331552687558,4.8444091845452641,1.1630909443103827
8.7964626038303066,0.3697685427628298,1.2197739109283066,0.7802260890716939,0.0084301324698723,0.0002592100380566,8.7972304296745065,8.0000000000000000,0.0000000000000000,1.1756346503468389
8.8964275919302924,0.3706097675988321,1.2206170955598736,0.7793829044401264,0.0084080313302828,-0.0001714689864665,8.8971989572472125,8.0000000000000000,0.0000000000000000,1.1881307162934271
8.9963925917405980,0.3714495999793375,1.2214587194880333,0.7785412805119667,0.0084644154740756,-0.0005133937802086,8.9971674848221532,8.0000000000000000,0.0000000000000000,1.2006267822402947
9.0963574843402117,0.3723020976904830,1.2223104191479102,0.7776895808520897,0.0085106777708281,-0.0000681273518772,9.0971360123935838,8.0000000000000000,0.0000000000000000,1.2131228481867236
9.1963224060157813,0.3731511792883379,1.2231590539308779,0.7768409460691221,0.0084780366561847,0.0003235016107786,9.1971045399668281,8.0000000000000000,0.0000000000000000,1.2256189141333791
9.2962873540570268,0.3739971510666465,1.2240044890745094,0.7759955109254908,0.0084459978114340,0.0003031747541719,9.2970730675399533,8.0000000000000000,0.0000000000000000,1.2381149800800197
9.3962523299343736,0.3748398271415489,1.2248467053511796,0.7751532946488205,0.0084174207886409,0.0000844474355993,9.3970415951130146,8.0000000000000000,0.0000000000000000,1.2506110460266524
9.4962173261633449,0.3756800855172839,1.2256865977811615,0.7743134022188386,0.0084291136398456,-0.0000885168107752,9.4970101226864276,8.0000000000000000,0.0000000000000000,1.2631071119733290
9.5961822823065912,0.3765250993431313,1.2265315315723806,0.7734684684276194,0.0084351185791183,0.0001445280216244,9.5969786502592953,8.0000000000000000,0.0000000000000000,1.2756031779199373
9.6961472684365368,0.3773665582862657,1.2273730989511991,0.7726269010488009,0.0084002171328159,0.0003492315713129,9.6969471778322927,8.0000000000000000,0.0000000000000000,1.2880992438665619
9.7961122833209355,0.3782045942669645,1.2282111937838789,0.7717888062161213,0.0083652942471859,0.0003320382119850,9.7969157054054392,8.0000000000000000,0.0000000000000000,1.3005953098132053
9.8960773279794942,0.3790390710764977,1.2290457903654626,0.7709542096345375,0.0083338303905156,0.0001296981308209,9.8968842329785378,8.0000000000000000,0.0000000000000000,1.3130913757598426
9.9960423954018225,0.3798708164857421,1.2298776700650862,0.7701223299349144,0.0083393627848516,-0.0000281700266165,9.9968527605518513,8.0000000000000000,0.0000000000000000,1.3255874417065068
10.0960074308208139,0.3807063993873167,1.2307130263965933,0.7692869736034070,0.0083394626226807,0.0001876955688724,10.0968212881248114,8.0000000000000000,0.0000000000000000,1.3380835076531268
10.1959724980767099,0.3815381647571488,1.2315447375567143,0.7684552624432857,0.0083018354855473,0.0003765700432368,10.1967898156977750,8.0000000000000000,0.0000000000000000,1.3505795735997472
10.2959375960940189,0.3823662248601736,1.2323726999741005,0.7676273000258994,0.0082641723171797,0.0003658557168267,10.2967583432709286,8.0000000000000000,0.0000000000000000,1.3630756395463914
