# x_m,y_m,w_tr_right_m,w_tr_left_m,psi,kappa,s,velocity,acceleration,time
0.0426121745287204,-0.3301015608368064,0.5572462914849778,1.1240924608192688,0.1576579586607620,0.0003176043303134,0.0000000000000000,8.0000000000000000,0.0000000000000000,0.0000000000000000
0.1413377535921104,-0.3144064320373740,0.5579216064270008,1.0968574843927477,0.1576262092234613,0.0193900511245031,0.0999653791541474,8.0000000000000000,0.0000000000000000,0.0124956723942684
0.2400643051746342,-0.2987175760322947,0.5585622726493812,1.0699436517217960,0.1537812915051382,0.0383858576725003,0.1999307341033739,8.0000000000000000,0.0000000000000000,0.0249913417629217
0.3389076570087081,-0.2837820871672476,0.5550416025751522,1.0815994164345006,0.1499516965198107,0.0403674139527075,0.2998961132575214,8.0000000000000000,-4.5504018546736216,0.0374870141571902
0.4377514857791420,-0.2688498479082009,0.5515526465785607,1.0931453710451180,0.1457106043827476,0.0423434428465330,0.3998614785361432,7.9429361594353800,-5.5358101035928273,0.0500274100138794
0.5367179659123422,-0.2547532937378602,0.5562194429350034,1.0764520052906119,0.1414859404696569,0.0478222751990540,0.4998268576902906,7.8729572665551810,-5.2244281225268789,0.0626685395993725
0.6356844460455424,-0.2406567395675195,0.5608862392914460,1.0597586395361058,0.1361494606381728,0.0537517110460345,0.5997922368444381,7.8063392345413769,-2.6053886200910772,0.0754197978139430
0.7347957372132193,-0.2276172336592289,0.5554721051761929,1.0715478130162703,0.1307393201946430,0.0975637719232086,0.6997576146072234,7.7729038929789631,0.0000000000000000,0.0882529472737134
0.8339087485482616,-0.2145923553395458,0.5501033465094157,1.0833393072296178,0.1166434816618656,0.1406864690306487,0.7997227908994842,7.7729038929789631,0.0000000000000000,0.1011136718714479
0.9333482148904750,-0.2043517712249433,0.5540042112122739,1.0942317879003765,0.1026117962975515,0.0776620875645725,0.8996881700536316,7.7729038929789631,3.8078092808267763,0.1139744225677795
1.0327878737046481,-0.1941130839069252,0.5578937966256489,1.1050761896415322,0.1011164418232740,0.0155806933079099,0.9996535463750124,7.8217218759633296,7.5467835741097460,0.1267949131396620
1.1322575218974669,-0.1841699396442033,0.5600259370377673,1.1084293327691266,0.0994967365136685,0.0336679479477066,1.0996189255291597,7.9175859494977159,6.3894180474945017,0.1394975529587315
1.2317296964521447,-0.1742534443293729,0.5619905511979667,1.1112021986354079,0.0943851879454418,0.0507388972823092,1.1995841714397528,7.9978501336528174,0.1720257549194785,0.1520596022030403
1.3312957947167066,-0.1653276891342036,0.5577269652976098,1.0924018314552275,0.0893524770649208,0.0684372118521464,1.2995495505939003,8.0000000000000000,0.0000000000000000,0.1645569538245398
1.4308627809774805,-0.1564129058534161,0.5534876393758680,1.0738849287145931,0.0807024907581799,0.0865431621469737,1.3995148351380688,8.0000000000000000,0.0000000000000000,0.1770526143925609
1.5305683876511580,-0.1492108903531283,0.5530354109725152,1.0996181670228558,0.0720498452183254,0.0795014238216599,1.4994802142922163,8.0000000000000000,0.0000000000000000,0.1895482867868293
1.6302747424108095,-0.1420203915624898,0.5526671264791664,1.1251898360472201,0.0648077173987331,0.0721963823214911,1.5994455105320398,8.0000000000000000,0.0000000000000000,0.2020439488168072
1.7300742026168028,-0.1362632419183686,0.5627463513374039,1.1306528801055464,0.0576155737397883,0.0380228271298683,1.6994108896861870,8.0000000000000000,0.0000000000000000,0.2145396212110756
1.8298737513703496,-0.1305076382532379,0.5725179134961202,1.1356772011199134,0.0572057847613052,0.0040615034256958,1.7993762682177648,8.0000000000000000,0.0000000000000000,0.2270352935275229
1.9296778964906958,-0.1248322839709688,0.5663191798622774,1.1179280861800729,0.0568035542825458,0.0020727636886776,1.8993416473719118,8.0000000000000000,0.0000000000000000,0.2395309659217912
2.0294820437303036,-0.1191569669650498,0.5601532326492924,1.1002147507648032,0.0567913755452349,0.0001410533314870,1.9993070265256119,8.0000000000000000,0.0000000000000000,0.2520266383160037
2.1292863270583418,-0.1134840436613959,0.5560926667223701,1.0847989989065185,0.0567753533830198,0.0013843757566451,2.0992724056797591,8.0000000000000000,0.0000000000000000,0.2645223107102722
2.2290906559023282,-0.1078119248265767,0.5521688431001431,1.0697705831805588,0.0565145962507116,0.0025932795111826,2.1992377846270470,8.0000000000000000,0.0000000000000000,0.2770179830786832
2.3288978841684136,-0.1021910516493876,0.5569556730531591,1.0794159571305388,0.0562568770443801,0.0015478354507761,2.2992031637811947,8.0000000000000000,0.0000000000000000,0.2895136554729517
2.4287051235788377,-0.0965703765395900,0.5617230526209412,1.0893762565236313,0.0562051363353171,0.0006859572385713,2.3991685429252745,8.0000000000000000,0.0000000000000000,0.3020093278659616
2.5285129329664606,-0.0909598315859974,0.5654956422880603,1.1154434168609209,0.0561197330935124,0.0069611908172816,2.4991339220794213,8.0000000000000000,0.0000000000000000,0.3145050002602300
2.6283211221815876,-0.0853562047753602,0.5692111861257587,1.1405715436196342,0.0548133802378246,0.0128773482130903,2.5990992924225331,8.0000000000000000,0.0000000000000000,0.3270006715531190
2.7281432495993676,-0.0800064470966507,0.5708333683072166,1.1312407641395676,0.0535451552137320,0.0053757400784576,2.6990646715766804,8.0000000000000000,0.0000000000000000,0.3394963439473874
2.8279653397242783,-0.0746559960732380,0.5722296322867745,1.1216903838226995,0.0537386044481794,-0.0005088987261066,2.7990300505989185,8.0000000000000000,0.0000000000000000,0.3519920163251671
2.9277853898578483,-0.0692676177676615,0.5612677382665894,1.1001274174669551,0.0536468997218775,0.0614623015259103,2.8989954297530658,8.0000000000000000,0.0000000000000000,0.3644876887194355
3.0276077896937852,-0.0639355111234205,0.5505745423922016,1.0789358705991641,0.0414504411398022,0.1212767689760799,2.9989601378768391,8.0000000000000000,0.0000000000000000,0.3769832772349072
3.1275295691055729,-0.0609833883931479,0.5512458104332810,1.0734533393474774,0.0294000247157056,0.0864384195926749,3.0989255170309868,8.0000000000000000,0.0000000000000000,0.3894789496291757
3.2274520079569551,-0.0580583927514161,0.5519478371633866,1.0680647107626322,0.0241687543152980,0.0517170209420933,3.1988907579175687,8.0000000000000000,0.0000000000000000,0.4019746047399984
3.3273992045890504,-0.0561518474942122,0.5538046578780805,1.0662015326517231,0.0190602086520935,0.0280294664092564,3.2988561370717164,8.0000000000000000,0.0000000000000000,0.4144702771342669
3.4273464495159716,-0.0542479015359731,0.5556639934768725,1.0643411540161773,0.0185648018762710,0.0053033051027332,3.3988215149717367,8.0000000000000000,0.0000000000000000,0.4269659493717694
3.5272954861189723,-0.0524403862346557,0.5576166280493249,1.0625846323251265,0.0179999148480148,0.0187033865367764,3.4987868941258844,8.0000000000000000,0.0000000000000000,0.4394616217660379
3.6272447685601237,-0.0506493601677316,0.5594566292973188,1.0620989889730605,0.0148254205767344,0.0322148461660502,3.5987522222895705,8.0000000000000000,0.0000000000000000,0.4519572877864986
3.7272032665292150,-0.0494764521595822,0.5570744398597834,1.1092536928370955,0.0115591778679012,0.0491755878227476,3.6987176014437178,8.0000000000000000,0.0000000000000000,0.4644529601807670
3.8271619445252343,-0.0483383790440515,0.5547768281328158,1.1551367817715383,0.0049937189614726,0.0650121420974313,3.7986827579590163,8.0000000000000000,0.0000000000000000,0.4769486047451794
3.9271272260640426,-0.0484780797931065,0.5555815996763438,1.1543759398452098,-0.0014387345266564,0.0383416745388681,3.8986481371131640,8.0000000000000000,0.0000000000000000,0.4894442771394478
4.0270924859107602,-0.0486260262153484,0.5563460891501995,1.1536539108498007,-0.0026719607270429,0.0121134752872762,3.9986135064385739,8.0000000000000000,-2.8292292179731819,0.5019399483051241
4.1270571188211020,-0.0490122858860149,0.5559463618694837,1.1540536381305164,-0.0038605907075302,0.0054581509871356,4.0985788855927217,7.9645684162434458,-8.1534522489746415,0.5144633534542965
4.2270217542566781,-0.0493978751254785,0.5555477091646380,1.1544522908353623,-0.0037632129925180,-0.0009590234175578,4.1985442646838314,7.8615662667869568,-8.4407229396263492,0.5270963028248459
4.3269864604973742,-0.0497646661338792,0.5551791865095458,1.1548208134904545,-0.0036688524284829,-0.0005208434311466,4.2985096438379786,7.7534936660252001,-8.4686859551624369,0.5399000166222024
4.4269511669840353,-0.0501313899280447,0.5548107994880048,1.1551892005119955,-0.0036590803703693,-0.0000962455492802,4.3984750229914908,7.6435275380031973,-8.4943769456521547,0.5528850450674914
4.5269158803742453,-0.0504962272145381,0.5544462193049177,1.1555537806950826,-0.0036496099828316,-0.0000521969478975,4.4984404021456381,7.5316150990416713,-8.4970390908928657,0.5660599300152106
4.6268805937896378,-0.0508610575996192,0.5540816501237520,1.1559183498762482,-0.0036486445949948,-0.0000095050152472,4.5984057812997801,7.4179786014314670,-8.4994769727024515,0.5794335883442632
4.7268453078840800,-0.0512257018766751,0.5537173776276447,1.1562826223723555,-0.0036477096379255,-0.0000052251439847,4.6983711604539273,7.3025406301450220,-8.4997213579911914,0.5930153618648215
4.8268100219815047,-0.0515903453363246,0.5533531050107315,1.1566468949892685,-0.0036475999279957,-0.0000010437677514,4.7983365396080755,7.1852448753265508,-8.4999461126183053,0.6068153148136547
4.9267747361559548,-0.0519549676791369,0.5529888292729220,1.1570111707270783,-0.0036475009566475,0.0000003623255667,4.8983019187622228,7.0659990975467188,-8.4998289882539595,0.6208443187861399
5.0267394503255556,-0.0523195913515013,0.5526245376296962,1.1573754623703041,-0.0036476723680210,0.0000035458306543,4.9982672979163700,6.9447077686119094,-8.4977215292652044,0.6351141739917474
5.1267041643750000,-0.0526842479644916,0.5522598519181451,1.1577401480818552,-0.0036482098772590,0.0000489677679138,5.0982326770705182,6.8212909395641432,-8.4955910570705875,0.6496376940462387
5.2266688781519042,-0.0530489791007680,0.5518948638650411,1.1581051361349590,-0.0036574625309926,0.0000983447996289,5.1981980562240038,6.6956314205513010,-8.4894186587679954,0.6644288390258762
5.3266335854361495,-0.0534154855914651,0.5515226731852183,1.1584773268147819,-0.0036678720276244,0.0002453121909175,5.2981634353781519,6.5676620048408205,-8.4745566709753835,0.6795028294667071
5.4265982915873687,-0.0537822978923259,0.5511518394921154,1.1587956576609302,-0.0037065079833423,0.0006139820266813,5.3981288145209518,6.4373798760417547,-8.2858123876182752,0.6948761562208099
5.5265629702525141,-0.0541565288459286,0.5508139249575057,1.1578074021012734,-0.0037906259197995,0.0053838612928901,5.4980941936750991,6.3073981097288110,-8.1015551302750026,0.7105634250403621
5.6265276044048420,-0.0545401587574847,0.5505110273167964,1.1553348541742554,-0.0047829074064227,0.0104404640689979,5.5980595639445969,6.1776630693084256,-7.7276631325887664,0.7265770222243859
5.7264913435307427,-0.0551127750350069,0.5509122200186974,1.1230173998302853,-0.0058779957254449,0.0210914257236827,5.6980249430987442,6.0513241069907728,-7.4312437357994590,0.7429259442917651
5.8264548175746942,-0.0557153435964671,0.5513123936530743,1.0916702343237661,-0.0089997302676244,0.0304204774710436,5.7979902332339055,5.9272920103213309,-7.4274449418018786,0.7596165685101481
5.9264130332828824,-0.0569120648956005,0.5516923524096576,1.0795703412555704,-0.0119599821463310,0.0133131302890553,5.8979556123880528,5.8006737432915090,-8.0511918383044421,0.7766639203278924
6.0263712762059365,-0.0581064548826627,0.5520170574168367,1.0680133384748214,-0.0116614344928676,0.0040361816235388,5.9979209908733342,5.6602239352665284,-4.0106514978646937,0.7941085186986299
6.1263301886520596,-0.0592434913907249,0.5509824442978507,1.0698121824230484,-0.0127669389962954,0.1437222408334848,6.0978863700274815,5.5889428698176653,0.0000000000000000,0.8118814579547118
6.2262782428174868,-0.0606587936044217,0.5500795680960577,1.0722392894552677,-0.0403948812141868,0.2721194504065706,6.1978444442977034,5.5889428698176653,0.0000000000000000,0.8297664277242245
6.3260218136205770,-0.0673144012311849,0.5516575641910938,1.0864978596294015,-0.0671699992655186,0.1948063432287915,6.2978098234518507,5.5889428698176653,2.4149740491878435,0.8476527045179983
6.4257568601546149,-0.0740779598281704,0.5533780351206660,1.1008664444992906,-0.0793424157940548,0.1193324077169890,6.3977739431750873,5.6319715830292294,4.7148829595498443,0.8654701685301002
6.5253088626025200,-0.0831595807211954,0.5581579092347800,1.1175974066383714,-0.0910280677402078,0.0634610418427522,6.4977393223292337,5.7150462848070109,6.4272510603694046,0.8830898427596622
6.6248598555622644,-0.0922521462969888,0.5623676507409322,1.1319444035799273,-0.0920302293520392,0.0095915493743297,6.5977046910727202,5.8263847351509499,8.1743979841665606,0.9004127152129345
6.7243934555540230,-0.1015332831946513,0.5567542971607697,1.1052168917305012,-0.0929457133801146,0.0019425508713932,6.6976700702268683,5.9649872313097392,8.4308819562803645,0.9173683976286007
6.8239276406947678,-0.1108081087998019,0.5514658156309824,1.0811062745493139,-0.0924186050147096,-0.0012677165085995,6.7976354462409567,6.1046429248128957,8.4527564332554963,0.9339331762872702
6.9234709697048915,-0.1199843105747580,0.5512539687004103,1.0978887351196316,-0.0926922578612110,0.0791326159856793,6.8976008253951040,6.2415247530522722,5.4172598597547683,0.9501269267307169
7.0229978042515624,-0.1293134003730241,0.5512600196048738,1.1130288751721196,-0.1082394691144528,0.1527182692608308,6.9975639321462673,6.3276917983007950,2.3852088350016158,0.9660329470212818
7.1222077363697327,-0.1415798749497097,0.5554524663435372,1.0966156784365728,-0.1232249902046085,0.0916502927431150,7.0975293113004145,6.3652619824629895,4.7866454053971381,0.9817842655686866
7.2214124348783395,-0.1538875485985322,0.5595025185379582,1.0825949171153353,-0.1265631697264797,0.0325821751455576,7.1974945604464526,6.4399966231697041,7.1487013179980758,0.9973974214173419
7.3205382612004204,-0.1668161055712594,0.5614066389589216,1.1046289302155821,-0.1297391649528465,0.0201441212088625,7.2974599396005999,6.5500230367430046,7.6357607607062823,1.0127885265536398
7.4196629022570528,-0.1797536902675052,0.5629651783723424,1.1242630889825820,-0.1305905990074081,0.0084337393798136,7.3974253114169386,6.6655401213219978,8.1252938078361616,1.0279169581793981
7.5187665692427190,-0.1928510266160437,0.5584084289378417,1.1014302078358567,-0.1314253288005420,0.0066242860805615,7.4973906905710868,6.7863039470268092,8.1949256504325945,1.0427796608164825
7.6178694780394212,-0.2059540784080191,0.5542291445258335,1.0813719278514458,-0.1319149975291456,0.0055036383139049,7.5973560670683051,6.9059640107269651,8.2375186162541407,1.0573813873975941
7.7169602707899818,-0.2191484643921398,0.5560818440312547,1.1056524570045025,-0.1325256753674728,0.0150680150368858,7.6973214462224533,7.0241919293953279,7.7565551036625129,1.0717337578353467
7.8160470379439415,-0.2323725377187873,0.5576903179549767,1.1268869104988755,-0.1349275561850518,0.0243593970862834,7.7972867579079157,7.1337258959164274,7.2603491822557178,1.0858552286503196
7.9150733049616395,-0.2460427780228911,0.5556283592858755,1.1023423129206460,-0.1373958664553698,0.0274960902951210,7.8972521370620630,7.2347503257306691,7.0608103026762761,1.0997697701245981
8.0140935291001316,-0.2597558347439379,0.5538840716449015,1.0807263747081217,-0.1404248670240846,0.0299388511890494,7.9972173945922265,7.3316630934745870,6.8906884378974480,1.1134952157306335
8.1130351652500110,-0.2740257214084267,0.5562711138361438,1.0971978185186588,-0.1433815600351933,0.0289907906812612,8.0971827737463737,7.4250215003643181,6.9017103342929733,1.1270437033354828
8.2119726115235778,-0.2883240864150349,0.5583706165605032,1.1122527811077396,-0.1462210155395778,0.0278376894082497,8.1971480753114516,7.5173670517433973,5.1418093912397955,1.1404237999935876
8.3108316152941555,-0.3031556204867811,0.5550868301838158,1.1007885044286649,-0.1489471682282351,0.0156278661930514,8.2971134544655989,7.5854342816548419,-7.5987763080695823,1.1536617916677661
8.4096897067859597,-0.3179932188518481,0.5522462141665171,1.0904480802529197,-0.1493455066430587,0.0045765604464002,8.3970788313650289,7.4846231813019983,-7.5714522027355047,1.1669285462432082
8.5085368632457730,-0.3329035068853386,0.5547176608702608,1.0935787171723255,-0.1498621634184087,0.0170357556602159,8.4970442105191761,7.3828055633136733,-6.9310582059163623,1.1803761141947748
8.6073794915869399,-0.3478432368668772,0.5571173256406855,1.0968358541990983,-0.1527514767999505,0.0295357532535475,8.5970095080444242,7.2883528587916793,-6.8464534360487592,1.1940035721839992
8.7061388371997346,-0.3633244733667597,0.5581967522010617,1.1024196250681078,-0.1557672665526262,0.0319518060028692,8.6969748871985733,7.1938356088435302,-6.8366846893450752,1.2078088585020927
8.8048894700846851,-0.3788600915987374,0.5591061765129601,1.1069577818113563,-0.1591396201536848,0.0330124998124835,8.7969400957915038,7.0981976265074662,-6.8342216149454416,1.2217978000259158
8.9035421538488411,-0.3950070732226193,0.5581044231691191,1.0997410684186357,-0.1623674750431363,0.0263698312384538,8.8969054749456511,7.0012883410864628,-7.2055764069299482,1.2359778033797837
9.0021905550051429,-0.4111798887373265,0.5571990003065818,1.0932007204818057,-0.1644117591884513,0.0199262185203972,8.9968708039971155,6.8976389295167371,-7.5503397178837899,1.2503624140918486
9.1007763963758777,-0.4277300824116295,0.5577007607441926,1.0965406322659574,-0.1663513380237791,0.0117756244200714,9.0968361831512645,6.7873321457479188,-7.9570162616155038,1.2649719267615296
9.1993613659478424,-0.4442854560398551,0.5579692232731617,1.1001579523019303,-0.1667660686842818,0.0073786524514448,9.1968015602649196,6.6691097902283243,-6.3917548049548829,1.2798295507291839
9.2979334456609557,-0.4609174171528458,0.5547882921801768,1.1078768532739747,-0.1678265575886337,0.0488029696209693,9.2967669394190668,6.5726035183208769,-4.7984284048464900,1.2949281073622756
9.3964820188892269,-0.4776816701591786,0.5524087560544949,1.1146537635280334,-0.1765232307886775,0.0876323723126931,9.3967312403678971,6.4992133313776517,-4.5835427533361095,1.3102227373434376
9.4947499193922873,-0.4960255181784219,0.5595980563990192,1.1101830923714038,-0.1853468697517755,0.0947758142288288,9.4966966195220444,6.4283265900500117,-4.3756258021411467,1.3256882288076648
9.5929869131882501,-0.5145261181043425,0.5661435961948030,1.1056081415169903,-0.1954716899868685,0.1019658749501378,9.5966605087405359,6.3599193078568526,-3.9686457049704207,1.3413219427691481
9.6908632392307368,-0.5348559442191269,0.5651767319626160,1.0998162922005588,-0.2057328325295327,0.1142690875707546,9.6966258878946832,6.2972310785930894,-3.7871661446240648,1.3571178172119713
9.7886992212095389,-0.5553684286690953,0.5644635960206931,1.0942138544472098,-0.2183173463254642,0.1211588802694641,9.7965890880638788,6.2368232909407153,-3.7247027520073432,1.3730684740739956
9.8860329258615725,-0.5781549810222518,0.5669093378843669,1.0909695612354939,-0.2299559553342136,0.0575745306768321,9.8965544672180261,6.1768343119059583,-6.2779065888044778,1.3891741831812330
9.9833670890165873,-0.6009395737334836,0.5684578666745019,1.0887282605855599,-0.2298282658892981,-0.0003348914692572,9.9965198461354490,6.0743835485440592,-8.0784556869498179,1.4054934389574503
10.0807066096990212,-0.6237012683704517,0.5595226171129259,1.0982067531667508,-0.2298890002288934,0.0119475177441004,10.0964852252895962,5.9399498081524955,-7.3696222720042028,1.4221344586771885
10.1780379301162895,-0.6464976665530217,0.5512300014653926,1.1069451935194203,-0.2322169412559720,0.0334336413168920,10.1964505277913506,5.8146015068860688,-3.3464892451217247,1.4391432410326426
