# x_m,y_m,w_tr_right_m,w_tr_left_m,psi,kappa,s,velocity,acceleration,time
-0.0065430224744506,0.2258734359877755,-0.0067826992013359,0.2263218859674362,0.0673906909499145,0.0000049448181701,0.0000000000000000,8.0000000000000000,0.0000000000000000,0.0000000000000000
0.0932246484923441,0.2326070449297063,0.0930015772319338,0.2330246151953931,0.0673901964945613,0.0027070108417919,0.0999946481543960,8.0000000000000000,0.0000000000000000,0.0124993310192995
0.1929923260647129,0.2393405552067175,0.1927858598125001,0.2397272465771768,0.0668493177567089,0.0054120460678257,0.1999892962553557,8.0000000000000000,0.0000000000000000,0.0249986620319195
0.2927672227878759,0.2459662358059923,0.2925768606977953,0.2463229430791642,0.0663078452101553,0.0056837336938296,0.2999839444097517,8.0000000000000000,0.0000000000000000,0.0374979930512190
0.3925421338027645,0.2525916992337587,0.3923678749260052,0.2529184240952279,0.0657126318556083,0.0059559198363916,0.3999785924348416,8.0000000000000000,0.0000000000000000,0.0499973240543552
0.4923248472149305,0.2590986004645293,0.4921661735594909,0.2593962631391540,0.0651167249939739,0.0062282285333697,0.4999732405892376,8.0000000000000000,0.0000000000000000,0.0624966550736547
0.5921075835837175,0.2656051461001063,0.5919644935356788,0.2658737494589778,0.0644670528154072,0.0065010335489435,0.5999678885127675,8.0000000000000000,0.0000000000000000,0.0749959860640959
0.6918986674675374,0.2719823897691107,0.6917705741717448,0.2722229778019904,0.0638165878707417,0.0067728904697229,0.6999625366671633,8.0000000000000000,0.0000000000000000,0.0874953170833954
0.7916897838265339,0.2783591195827634,0.7915766850208618,0.2785716963079524,0.0631125472188370,0.0070452507115433,0.7999571844603883,8.0000000000000000,0.0000000000000000,0.0999946480575485
0.8914897484574276,0.2845958430168936,0.8913910277971578,0.2847815032712657,0.0624076131411657,0.0073184535977365,0.8999518326147844,8.0000000000000000,0.0000000000000000,0.1124939790768480
0.9912897558206750,0.2908318742120179,0.9912054098237930,0.2909906242348135,0.0616489348375904,0.0075921503854197,0.9999464802453991,8.0000000000000000,0.0000000000000000,0.1249933100306749
1.0910990688931692,0.2969171583893030,1.0910283392907301,0.2970503568830020,0.0608892643320917,0.0078643043749018,1.0999411283997953,8.0000000000000000,0.0000000000000000,0.1374926410499744
1.1909084355245796,0.3030015521886463,1.1908513178507347,0.3031092071735312,0.0600761581453682,0.0081369540943873,1.1999357758328895,8.0000000000000000,0.0000000000000000,0.1499919719791112
1.2907275125809394,0.3089245172516853,1.2906831971611537,0.3090080828339451,0.0592619606145275,0.0084087903629878,1.2999304239872855,8.0000000000000000,0.0000000000000000,0.1624913029984107
1.3905466544388496,0.3148463739616809,1.3905151359098926,0.3149058597852265,0.0583944900859128,0.0086811266221562,1.3999250711847397,8.0000000000000000,0.0000000000000000,0.1749906338980925
1.4903758572565797,0.3205961499832274,1.4903563029339721,0.3206330533425129,0.0575258282185023,0.0089533430127231,1.4999197193391356,8.0000000000000000,0.0000000000000000,0.1874899649173919
1.5902051363731644,0.3263445796624070,1.5901975397305566,0.3263589123369987,0.0566039173282364,0.0092260622652767,1.5999143662594255,8.0000000000000000,0.0000000000000000,0.1999892957824282
1.6900447710535240,0.3319102787572031,1.6900482463105639,0.3319036395135890,0.0556807145297544,0.0094988774123316,1.6999090144138216,8.0000000000000000,0.0000000000000000,0.2124886268017277
1.7898844936057050,0.3374743733835452,1.7898990325770243,0.3374467770943679,0.0547042435336025,0.0097721842678272,1.7999036610120638,8.0000000000000000,0.0000000000000000,0.2249879576265080
1.8897348073733067,0.3428450809750015,1.8897594234741244,0.3427983202440433,0.0537263822898388,0.0100441952399350,1.8998983091664596,8.0000000000000000,0.0000000000000000,0.2374872886458075
1.9895852204390267,0.3482139062730163,1.9896199042816047,0.3481479982247742,0.0526955120149182,0.0103166965531801,1.9998929553955229,8.0000000000000000,0.0000000000000000,0.2499866194244404
2.0894463949838156,0.3533787371566652,2.0894901291677086,0.3532955376663361,0.0516631534258001,0.0105879836721014,2.0998876035499192,8.0000000000000000,0.0000000000000000,0.2624859504437399
2.1893076798950148,0.3585413882706173,2.1893604544084724,0.3584409156371994,0.0505780286358295,0.0108597834811118,2.1998822493597832,8.0000000000000000,0.0000000000000000,0.2749852811699729
2.2891798282307976,0.3634894834916977,2.2892406576119000,0.3633735388953338,0.0494913129948078,0.0111325616480475,2.2998768975141792,8.0000000000000000,0.0000000000000000,0.2874846121892724
2.3890520974646337,0.3684350809163612,2.3891209697937925,0.3683036863037865,0.0483516354971021,0.0114058328662130,2.3998715428498305,8.0000000000000000,0.0000000000000000,0.2999839428562288
2.4889352648153356,0.3731555194037501,2.4890111056247046,0.3730106531201755,0.0472102685382283,0.0116781028016412,2.4998661910042270,8.0000000000000000,0.0000000000000000,0.3124832738755284
2.5888185627816762,0.3778731222962963,2.5889013586276763,0.3777148092469182,0.0460161399746943,0.0119508783386831,2.5998608358092592,8.0000000000000000,0.0000000000000000,0.3249826044761574
2.6887127188870648,0.3823550008660043,2.6888013521986669,0.3821853114314357,0.0448202208290309,0.0122237266598442,2.6998554839636548,8.0000000000000000,0.0000000000000000,0.3374819354954569
2.7886070142848460,0.3868336857646709,2.7887014694469809,0.3866526490975237,0.0435715255298901,0.0124970605829082,2.7998501281774364,8.0000000000000000,0.0000000000000000,0.3499812660221795
2.8885120518620386,0.3910660758957005,2.8886111246462014,0.3908759402349840,0.0423209425263729,0.0127689107631301,2.8998447763318325,8.0000000000000000,0.0000000000000000,0.3624805970414791
2.9884172360696262,0.3952948947974362,2.9885209097297492,0.3950956916033729,0.0410178801103969,0.0130412535064929,2.9998394198926537,8.0000000000000000,0.0000000000000000,0.3749799274865817
3.0883329644994610,0.3992669058569591,3.0884400348223320,0.3990608974407258,0.0397128314745308,0.0133127661176939,3.0998340680470498,8.0000000000000000,0.0000000000000000,0.3874792585058812
3.1882488452984910,0.4032349483668993,3.1883592948791097,0.4030221676353114,0.0383554694533113,0.0135847972984950,3.1998287108895873,8.0000000000000000,0.0000000000000000,0.3999785888611984
3.2881749884531586,0.4069357015002974,3.2882876450315837,0.4067183647900917,0.0369960174944677,0.0138577024258006,3.2998233590439834,8.0000000000000000,0.0000000000000000,0.4124779198804979
3.3881012878658101,0.4106320679620388,3.3882161317195498,0.4104102128820503,0.0355840773812688,0.0141310991327660,3.3998180010970773,8.0000000000000000,0.0000000000000000,0.4249772501371347
3.4880374830696566,0.4140506272638751,3.4881532651767078,0.4138266355751559,0.0341699490090541,0.0144035224572625,3.4998126492514734,8.0000000000000000,0.0000000000000000,0.4374765811564342
3.5879738362250158,0.4174643620504305,3.5880905351577077,0.4172382749599834,0.0327035271609510,0.0146764396527329,3.5998072904438172,8.0000000000000000,0.0000000000000000,0.4499759113054771
3.6879196277103801,0.4205898098400457,3.6880359630667479,0.4203640896559784,0.0312348182727638,0.0149485869354038,3.6998019385982137,8.0000000000000000,0.0000000000000000,0.4624752423247767
3.7878655763358378,0.4237099754614977,3.7879815254283025,0.4234846662021981,0.0297139698969822,0.0152212425363682,3.7997965788553190,8.0000000000000000,0.0000000000000000,0.4749745723569149
3.8878204121257589,0.4265314044844124,3.8879346918429230,0.4263089956396289,0.0281907328091766,0.0154939429141638,3.8997912270097150,8.0000000000000000,0.0000000000000000,0.4874739033762144
3.9877754014277440,0.4293470733056604,3.9878879871103932,0.4291276131721082,0.0266153472946078,0.0157671462444367,3.9997858662523811,8.0000000000000000,0.0000000000000000,0.4999732332815476
4.0877386307361183,0.4318535540582026,4.0878481987613835,0.4316396350395759,0.0250374724674665,0.0160400390911118,4.0997805144067776,8.0000000000000000,0.0000000000000000,0.5124725643008472
4.1877020067606541,0.4343537764183058,4.1878085302701828,0.4341454516356816,0.0234075113245360,0.0163134208619097,4.1997751525533937,8.0000000000000000,0.0000000000000000,0.5249718940691742
4.2876728758278526,0.4365343720870559,4.2877749831201495,0.4363343545237222,0.0217749630721651,0.0165857806354998,4.2997698007077902,8.0000000000000000,0.0000000000000000,0.5374712250884738
4.3876438812799234,0.4387081915881882,4.3877415442524823,0.4385165374264439,0.0200905329120489,0.0168586463260744,4.3997644376755867,8.0000000000000000,0.0000000000000000,0.5499705547094483
4.4876215291599513,0.4405519876448267,4.4877133791208355,0.4403714331622835,0.0184034144452856,0.0171313484257323,4.4997590858299823,8.0000000000000000,0.0000000000000000,0.5624698857287478
4.5875992992058325,0.4423884695100302,4.5876853064158896,0.4422190748230930,0.0166644468089083,0.0174045114764596,4.5997537215310453,8.0000000000000000,0.0000000000000000,0.5749692151913807
4.6875827550100571,0.4438845393499714,4.6876615353703208,0.4437291023546563,0.0149226986592543,0.0176754626556026,4.6997483696854410,8.0000000000000000,0.0000000000000000,0.5874685462106801
4.7875663144680551,0.4453727385431093,4.7876378398879851,0.4452313168978116,0.0131295437144865,0.0179469915614668,4.7997430040351379,8.0000000000000000,0.0000000000000000,0.5999678755043922
4.8875544926567098,0.4465102278991674,4.8876175114438674,0.4463853908166673,0.0113334926937696,0.0182215073785263,4.8997376521895335,8.0000000000000000,0.0000000000000000,0.6124672065236917
4.9875427513585313,0.4476392670740930,4.9875972309552354,0.4475310819418345,0.0094854375542301,0.0184966924423807,4.9997322850839092,8.0000000000000000,0.0000000000000000,0.6249665356354887
5.0875344508434663,0.4484071821968754,5.0875789998757757,0.4483185288616335,0.0076343524704376,0.0187782078808734,5.0997269332383048,8.0000000000000000,0.0000000000000000,0.6374658666547881
5.1875262026324176,0.4491660408913123,5.1875607890805746,0.4490969866798951,0.0057299972903591,0.0190616216646296,5.1997215645558983,8.0000000000000000,0.0000000000000000,0.6499651955694873
5.2875201016237927,0.4495531119753722,5.2875434110017085,0.4495064208110563,0.0038222324881607,0.0193991264441478,5.2997162127102939,8.0000000000000000,0.0000000000000000,0.6624645265887867
5.3875140191093660,0.4499304445431989,5.3875260613868354,0.4499061006986471,0.0018503800071095,0.0197426924158180,5.3997108421359705,8.0000000000000000,0.0000000000000000,0.6749638552669963
5.4875086669989530,0.4499231672407378,5.4875098359198535,0.4499205495854849,-0.0001260943055643,0.0202927147279839,5.4997054902903670,8.0000000000000000,0.0000000000000000,0.6874631862862959
5.5875032919139151,0.4499052270345907,5.5874935616646724,0.4499243920447247,-0.0022079452926018,0.0208512417308137,5.5997001168146703,8.0000000000000000,0.0000000000000000,0.6999625146018338
5.6874970427302012,0.4494816031304217,5.6874754312005766,0.4495246995103633,-0.0042961190154600,0.0216838638918050,5.6996947649690677,8.0000000000000000,0.0000000000000000,0.7124618456211335
5.7874907161990139,0.4490460519724322,5.7874567288022094,0.4491140850160197,-0.0065444854075003,0.0225185980356221,5.7996893870174500,8.0000000000000000,0.0000000000000000,0.7249611733771812
5.8874815511333320,0.4481727887477651,5.8874170372863519,0.4483026512092085,-0.0087995970025938,0.0233725455346860,5.8996840351718465,8.0000000000000000,0.0000000000000000,0.7374605043964808
5.9874722380053527,0.4472862497501357,5.9873761865589241,0.4474800109195496,-0.0112187436118480,0.0242212741465592,5.9996786520896226,8.0000000000000000,0.0000000000000000,0.7499598315112028
6.0874576775091347,0.4459292137310684,6.0872942530567542,0.4462602098155521,-0.0136435918182758,0.0248359679301345,6.0996733002440191,8.0000000000000000,0.0000000000000000,0.7624591625305024
6.1874428847132199,0.4445577625682711,6.1872110696804938,0.4450281092590697,-0.0161856704769385,0.0254480670173094,6.1996679127885743,8.0000000000000000,0.0000000000000000,0.7749584890985718
6.2874201326219943,0.4426924046645615,6.2870850618100951,0.4433745919893315,-0.0187329319272849,0.0259356181468832,6.2996625609429699,8.0000000000000000,0.0000000000000000,0.7874578201178712
6.3873970514652232,0.4408115965587317,6.3869579952532476,0.4417071882922497,-0.0213725154724906,0.0264241373415341,6.3996571695002142,8.0000000000000000,0.0000000000000000,0.7999571461875268
6.4873630587262054,0.4384184706074732,6.4867958233977383,0.4395793204224641,-0.0240174755134646,0.0269141237305673,6.4996518176546099,8.0000000000000000,0.0000000000000000,0.8124564772068262
6.5873286251669754,0.4360088213712460,6.5866327793133115,0.4374359119731928,-0.0267550509570449,0.0274061205116097,6.5996464219253683,8.0000000000000000,0.0000000000000000,0.8249558027406710
6.6872800314206655,0.4330684051709082,6.6864417171746178,0.4347933033824385,-0.0294984050664551,0.0279318235926747,6.6996410700797639,8.0000000000000000,0.0000000000000000,0.8374551337599705
6.7872308673817825,0.4301103130835122,6.7862498801469560,0.4321335577638430,-0.0323411153414170,0.0284600172387931,6.7996356695245517,8.0000000000000000,0.0000000000000000,0.8499544586905690
6.8871639408170848,0.4266016818267697,6.8860339081648512,0.4289400564677067,-0.0351901025007011,0.0290333512012199,6.8996303176789473,8.0000000000000000,0.0000000000000000,0.8624537897098684
6.9870962936810184,0.4230741235998230,6.9858171311350716,0.4257279366354499,-0.0381474732434266,0.0296083082662951,6.9996249116126510,8.0000000000000000,0.0000000000000000,0.8749531139515814
7.0870068665644856,0.4189744790275630,7.0855760207451643,0.4219530531823219,-0.0411114456303883,0.0301989500802207,7.0996195597670475,8.0000000000000000,0.0000000000000000,0.8874524449708809
7.1869165465063780,0.4148545928688242,7.1853340158062302,0.4181580801904672,-0.0441869381994278,0.0307904890360533,7.1996141476608546,8.0000000000000000,0.0000000000000000,0.8999517684576068
7.2868000126715291,0.4101404814619391,7.2850657499011318,0.4137733455636952,-0.0472692120102591,0.0313755830376814,7.2996087958152502,8.0000000000000000,0.0000000000000000,0.9124510994769063
7.3866823907604768,0.4054047796228728,7.3847964956438439,0.4093669735973929,-0.0504617168803463,0.0319621684975930,7.3996033772915082,8.0000000000000000,0.0000000000000000,0.9249504221614385
7.4865337214591845,0.4000530119505245,7.4844990395418245,0.4043431973338600,-0.0536613014654179,0.0325592327115884,7.4995980254459047,8.0000000000000000,0.0000000000000000,0.9374497531807381
7.5863837431874961,0.3946782473608741,7.5842004489713695,0.3992962298408043,-0.0569732125212283,0.0331572013194114,7.5995925999664182,8.0000000000000000,0.0000000000000000,0.9499490749958023
7.6861974345215209,0.3886652047202835,7.6838703712979877,0.3936055911728615,-0.0602923843833625,0.0337488560873364,7.6995872481208147,8.0000000000000000,0.0000000000000000,0.9624484060151018
7.7860095695449925,0.3826277248595810,7.7835390046620825,0.3878901306032211,-0.0637226197678082,0.0343422204157531,7.7995818152782963,8.0000000000000000,0.0000000000000000,0.9749477269097870
7.8857796600086170,0.3759300604605789,7.8831728160159624,0.3815040931170200,-0.0671604580963765,0.0349508537474088,7.8995764634326928,8.0000000000000000,0.0000000000000000,0.9874470579290866
7.9855479163033500,0.3692064530094180,7.9828051110820368,0.3750916223121219,-0.0707124133036521,0.0355607475177364,7.9995710225909233,8.0000000000000000,0.0000000000000000,0.9999463778238654
8.0852679101173823,0.3618002061021718,8.0823975080715282,0.3679836116691426,-0.0742722238038931,0.0361731343493222,8.0995656707453207,8.0000000000000000,0.0000000000000000,1.0124457088431651
8.1849857601747935,0.3543664632025775,8.1819881232178613,0.3608475210601715,-0.0779466494593088,0.0367859242815851,8.1995602213646901,8.0000000000000000,0.0000000000000000,1.0249450276705863
8.2846486343928891,0.3462275958299491,8.2815330436606764,0.3529913301917813,-0.0816290113271196,0.0373794910973280,8.2995548695190848,8.0000000000000000,0.0000000000000000,1.0374443586898856
8.3843090243424161,0.3380596671143916,8.3810759412120177,0.3451052744503643,-0.0854221436037621,0.0379744333568107,8.3995494112920941,8.0000000000000000,0.0000000000000000,1.0499436764115118
8.4839072877318848,0.3291649726663652,8.4805682503163897,0.3364723583049612,-0.0892234874921005,0.0385751865106948,8.4995440594464924,8.0000000000000000,0.0000000000000000,1.0624430074308115
8.5835026904137255,0.3202396009154611,8.5800582429186001,0.3278077700386354,-0.0931367635411371,0.0391767577385363,8.5995385917782645,8.0000000000000000,0.0000000000000000,1.0749423239722831
8.6830282893421113,0.3105656762998817,8.6794917108538581,0.3183703544823262,-0.0970584151663356,0.0397703623260893,8.6995332399326628,8.0000000000000000,0.0000000000000000,1.0874416549915829
8.7825506150525818,0.3008594306497527,8.7789225563424029,0.3088993700463031,-0.1010904053172563,0.0403659520171479,8.7995277623798529,8.0000000000000000,0.0000000000000000,1.0999409702974816
8.8819949685952420,0.2903832573023799,8.8782909318516516,0.2986287326716477,-0.1051311684307885,0.0409811965480619,8.8995224105342512,8.0000000000000000,0.0000000000000000,1.1124403013167814
8.9814355932438747,0.2798730457008689,8.9776562759436214,0.2883226793215626,-0.1092862003864314,0.0415975442085655,8.9995169222757401,8.0000000000000000,0.0000000000000000,1.1249396152844675
9.0807894565298586,0.2685708552197432,9.0769510870861101,0.2771925912126030,-0.1134502263507915,0.0422120645510982,9.0995115704301366,8.0000000000000000,0.0000000000000000,1.1374389463037671
9.1801390929306503,0.2572328716906374,9.1762424210582196,0.2660251779440697,-0.1177281552375213,0.0428272120246282,9.1995060708962910,8.0000000000000000,0.0000000000000000,1.1499382588620364
9.2793926210754538,0.2450810483570791,9.2754546933180677,0.2540090886816547,-0.1220152040213887,0.0434299916080464,9.2995007190506858,8.0000000000000000,0.0000000000000000,1.1624375898813357
9.3786413821726278,0.2328916593388407,9.3746630398958146,0.2419536595521401,-0.1264136817757588,0.0440341670678207,9.3994952078186262,8.0000000000000000,0.0000000000000000,1.1749369009773283
9.4777841723251317,0.2198671892805976,9.4737841189921372,0.2290237095025130,-0.1308215590883761,0.0446434208029973,9.4994898559730228,8.0000000000000000,0.0000000000000000,1.1874362319966278
9.5769216071188534,0.2068033334517481,9.5729007561184662,0.2160523805064097,-0.1353418804183901,0.0452565940241835,9.5994843323534536,8.0000000000000000,0.0000000000000000,1.1999355415441817
9.6759425978016900,0.1928830940963758,9.6719208093804028,0.2021813294136860,-0.1398723857067006,0.0459281174185946,9.6994789805078483,8.0000000000000000,0.0000000000000000,1.2124348725634810
9.7749575788543090,0.1789215026746457,9.7709356559567713,0.1882671364731093,-0.1445270037697326,0.0465958520701296,9.7994734428939125,8.0000000000000000,0.0000000000000000,1.2249341803617391
9.8738446941006099,0.1640800708775965,9.8698397208337223,0.1734350223027107,-0.1491910487170807,0.0471576296469174,9.8994680910483090,8.0000000000000000,0.0000000000000000,1.2374335113810386
9.9727251214155679,0.1491954806817855,9.9687381340735612,0.1585573590708365,-0.1539580155704525,0.0477203035946338,9.9994625405506987,8.0000000000000000,0.0000000000000000,1.2499328175688373
10.0714662475458230,0.1334119554085661,10.0675188308320109,0.1427309662688639,-0.1587345891728793,0.0482790860112115,10.0994571887050935,8.0000000000000000,0.0000000000000000,1.2624321485881367
10.1701999569469095,0.1175834406830701,10.1662933847609498,0.1268565347327311,-0.1636133057703668,0.0488429709092000,10.1994516248028759,8.0000000000000000,0.0000000000000000,1.2749314531003595
10.2687823785900303,0.1008372231250777,10.2649426361632710,0.1100022005710365,-0.1685026501971660,0.0494871665958371,10.2994462729572724,8.0000000000000000,0.0000000000000000,1.2874307841196591
