# x_m,y_m,w_tr_right_m,w_tr_left_m,psi,kappa,s,velocity,acceleration,time
-0.0012263279144551,0.4321798159429786,1.2321815086846744,0.5678184913153261,0.0014162791266792,-0.0000000000000044,0.0000000000000000,8.0000000000000000,0.0000000000000000,0.0000000000000000
0.0987442167911487,0.4323214022333947,1.2323248409033394,0.5676751590966611,0.0014162791266796,-0.0001788450818843,0.0993547835349015,8.0000000000000000,0.0000000000000000,0.0124963306210593
0.1987147614967526,0.4324629885238108,1.2324681731220042,0.5675318268779962,0.0014520376430500,-0.0003577061478076,0.1993705055061364,8.0000000000000000,0.0000000000000000,0.0249926612421186
0.2986852958208433,0.4326117244105775,1.2326169016959228,0.5673830983040775,0.0014877993552906,-0.0003599598071550,0.2993865378370291,8.0000000000000000,0.0000000000000000,0.0374889918631751
0.3986558301440062,0.4327604609363301,1.2327656307521335,0.5672343692478666,0.0015240084712180,-0.0003622138634293,0.3994028756197060,8.0000000000000000,0.0000000000000000,0.0499853224842344
0.4986263534347402,0.4329164365120338,1.2329197562581524,0.5670802437418474,0.0015602208623777,-0.0003644599214073,0.4994195191177996,8.0000000000000000,0.0000000000000000,0.0624816531052879
0.5985968767235024,0.4330724133815766,1.2330738827286816,0.5669261172713180,0.0015968790580345,-0.0003667063739313,0.5994364617349875,8.0000000000000000,0.0000000000000000,0.0749779837263472
0.6985673883099595,0.4332357184348599,1.2332389461014404,0.5667610538985592,0.0016335406078096,-0.0003689573289153,0.6994537051866716,8.0000000000000000,0.0000000000000000,0.0874743143473975
0.7985378998932796,0.4333990254526080,1.2334040124060526,0.5665959875939470,0.0016706488623095,-0.0003712086991824,0.7994712411303986,8.0000000000000000,0.0000000000000000,0.0999706449684568
0.8985083990844561,0.4335697499678076,1.2335747106959791,0.5664252893040205,0.0017077605539599,-0.0003734600175280,0.8994890727898847,8.0000000000000000,0.0000000000000000,0.1124669755895038
0.9984788982712026,0.4337404771346990,1.2337454109992925,0.5662545890007074,0.0017453189399539,-0.0003757117322575,0.9995071900123578,8.0000000000000000,0.0000000000000000,0.1249633062105632
1.0984493843560337,0.4339187111106031,1.2339217128118618,0.5660782871881380,0.0017828808423519,-0.0003779621693724,1.0995255975917799,8.0000000000000000,0.0000000000000000,0.1374596368316067
1.1984198704350097,0.4340969484412721,1.2340980171277249,0.5659019828722750,0.0018208891836455,-0.0003802130019084,1.1995927140777005,8.0000000000000000,0.0000000000000000,0.1499559674526660
1.2983903426822150,0.4342827818413625,1.2342856250891545,0.5657143749108453,0.0018589011204042,-0.0003824636872444,1.2996119785439164,8.0000000000000000,0.0000000000000000,0.1624522980737060
1.3983608149220026,0.4344686193150983,1.2344732391125408,0.5655267608874592,0.0018973594666272,-0.0003847147875305,1.3996315112032158,8.0000000000000000,0.0000000000000000,0.1749486286947653
1.4983312725797659,0.4346621421126989,1.2346667187851805,0.5653332812148194,0.0019358214912808,-0.0003869655062818,1.4996513212807872,8.0000000000000000,0.0000000000000000,0.1874449593158015
1.5983017302284044,0.4348556697194131,1.2348602021282675,0.5651397978717326,0.0019747298491142,-0.0003892166210605,1.5996713915927070,8.0000000000000000,0.0000000000000000,0.1999412899368609
1.6982721725241452,0.4350569718890985,1.2350594878629566,0.5649405121370434,0.0020136419645604,-0.0003914672990935,1.6996917331434662,8.0000000000000000,0.0000000000000000,0.2124376205578932
1.7982426148089052,0.4352582796191972,1.2352587777475506,0.5647412222524497,0.0020530003258630,-0.0003937183725453,1.7997123266549269,8.0000000000000000,0.0000000000000000,0.2249339511789525
1.8982130409490419,0.4354674511338257,1.2354697352978814,0.5645302647021186,0.0020923625238389,-0.0003959690645046,1.8997331849700281,8.0000000000000000,0.0000000000000000,0.2374302817999807
1.9981834670761878,0.4356766289759744,1.2356807022364897,0.5643192977635102,0.0021321708913951,-0.0003982201718460,1.9997542866488420,8.0000000000000000,0.0000000000000000,0.2499266124210400
2.0981538762458896,0.4358937598088685,1.2358977704749419,0.5641022295250581,0.0021719831786766,-0.0004004708260533,2.0997756464364037,8.0000000000000000,0.0000000000000000,0.2624229430420639
2.1981242854004290,0.4361108977529949,1.2361148441689216,0.5638851558310783,0.0022122415449382,-0.0004027218760270,2.1997972406661410,8.0000000000000000,0.0000000000000000,0.2749192736631232
2.2980946767633790,0.4363360778758718,1.2363379208925240,0.5636620791074760,0.0022525039100552,-0.0004049725116193,2.2998190860498462,8.0000000000000000,0.0000000000000000,0.2874156042841428
2.3980650681088282,0.4365612659095141,1.2365610035210635,0.5634389964789367,0.0022932122713002,-0.0004072235422728,2.3998411566203441,8.0000000000000000,0.0000000000000000,0.2999119349052021
2.4980354408069783,0.4367945852932464,1.2367961150506803,0.5632038849493198,0.0023339247103897,-0.0004094742856550,2.4998634711261958,8.0000000000000000,0.0000000000000000,0.3124082655262170
2.5980058134851172,0.4370279134030700,1.2370312394890128,0.5629687605109872,0.0023750830881699,-0.0004117254451033,2.5998860012315634,8.0000000000000000,0.0000000000000000,0.3249045961472763
2.6979761666384321,0.4372694620227351,1.2372727028367614,0.5627272971632387,0.0024162456269834,-0.0004139760725009,2.6999087677806983,8.0000000000000000,0.0000000000000000,0.3374009267682865
2.7979465197690456,0.4375110202004498,1.2375141735548085,0.5624858264451917,0.0024578539981086,-0.0004162270953528,2.7999317400086667,8.0000000000000000,0.0000000000000000,0.3498972573893459
2.8979168524752832,0.4377608880263799,1.2377618476712593,0.5622381523287409,0.0024994666093348,-0.0004184776403320,2.8999549409150998,8.0000000000000000,0.0000000000000000,0.3623935880103511
2.9978871851559443,0.4380107662581263,1.2380095295559601,0.5619904704440399,0.0025415249573262,-0.0004207285798850,2.9999783372355378,8.0000000000000000,0.0000000000000000,0.3748899186314104
3.0978574964904095,0.4382690432572460,1.2382695987290264,0.5617304012709735,0.0025835876243101,-0.0004229793576364,3.1000019541989641,8.0000000000000000,0.0000000000000000,0.3873862492524106
3.1978278077962323,0.4385273315257220,1.2385296845231946,0.5614703154768056,0.0026260959957085,-0.0004252305522770,3.2000257559605254,8.0000000000000000,0.0000000000000000,0.3998825798734699
3.2977980968115008,0.4387941076741440,1.2387963487608475,0.5612036512391525,0.0026686087694527,-0.0004274811796623,3.3000497700509359,8.0000000000000000,0.0000000000000000,0.4123789104944648
3.3977683857948624,0.4390608959721274,1.2390630224148924,0.5609369775851076,0.0027115671341937,-0.0004297322021911,3.4000739579778192,8.0000000000000000,0.0000000000000000,0.4248752411155241
3.4977386515205784,0.4393362612398317,1.2393360995357274,0.5606639004642727,0.0027545299802860,-0.0004319826742294,3.5000983496357025,8.0000000000000000,0.0000000000000000,0.4373715717365135
3.5977089172109191,0.4396116395530984,1.2396091863962291,0.5603908136037711,0.0027979383073093,-0.0004342335402730,3.6001229038141815,8.0000000000000000,0.0000000000000000,0.4498679023575728
3.6976791586535542,0.4398956839037284,1.2398950160176900,0.5601049839823100,0.0028413511944618,-0.0004364842176974,3.7001476528400876,8.0000000000000000,0.0000000000000000,0.4623642329785565
3.7976494000571361,0.4401797422116722,1.2401808661623390,0.5598191338376609,0.0028852095248326,-0.0004387353127039,3.8001725527131862,8.0000000000000000,0.0000000000000000,0.4748605635996158
3.8976196161997061,0.4404725556169510,1.2404735361716028,0.5595264638283973,0.0029290724988245,-0.0004409862018301,3.9001976382628225,8.0000000000000000,0.0000000000000000,0.4873568942205936
3.9975898322993264,0.4407653839079878,1.2407662177762664,0.5592337822237338,0.0029733808748706,-0.0004432374864440,4.0002228626207783,8.0000000000000000,0.0000000000000000,0.4998532248416530
4.0975600221011454,0.4410670563479657,1.2410655025822281,0.5589344974177722,0.0030176939736122,-0.0004454879789143,4.1002482631968222,8.0000000000000000,0.0000000000000000,0.5123495554626247
4.1975302118558941,0.4413687446179553,1.2413647992071624,0.5586352007928381,0.0030624523160259,-0.0004477388644535,4.2002737901772447,8.0000000000000000,0.0000000000000000,0.5248458860836840
4.2975003742524045,0.4416793660566851,1.2416771910829878,0.5583228089170126,0.0031072154597256,-0.0004499876176297,4.3002994836170574,8.0000000000000000,0.0000000000000000,0.5373422167046495
4.3974705365974938,0.4419900042853930,1.2419896075714654,0.5580103924285348,0.0031524234207501,-0.0004522367853450,4.4003252906915025,8.0000000000000000,0.0000000000000000,0.5498385473257088
4.4974406705001995,0.4423096646172511,1.2423090871779956,0.5576909128220046,0.0031976362659440,-0.0004544915391696,4.5003512541686286,8.0000000000000000,0.0000000000000000,0.5623348779466680
4.5974108043468940,0.4426293427156249,1.2426285806933666,0.5573714193066335,0.0032432950453567,-0.0004567466999917,4.6003773181336172,8.0000000000000000,0.0000000000000000,0.5748312085677272
4.6973809086421250,0.4429581320747209,1.2429548767638787,0.5570451232361212,0.0032889587903144,-0.0004589987939369,4.7004035281473824,8.0000000000000000,0.0000000000000000,0.5873275391886797
4.7973510128765104,0.4432869401931395,1.2432811868402822,0.5567188131597178,0.0033350678562956,-0.0004612512759293,4.8004298251223894,8.0000000000000000,0.0000000000000000,0.5998238698097390
4.8973210864262642,0.4436249486070944,1.2436209416924955,0.5563790583075048,0.0033811819654084,-0.0004634748970367,4.9004562574892692,8.0000000000000000,0.0000000000000000,0.6123202004306847
4.9972911599100884,0.4439629767886908,1.2439607254319880,0.5560392745680123,0.0034277356250620,-0.0004656988732089,5.0004827629064064,8.0000000000000000,0.0000000000000000,0.6248165310517440
5.0972612015554093,0.4443102931467262,1.2443078171369424,0.5556921828630579,0.0034742943988395,-0.0004680024303571,5.1005093927525937,8.0000000000000000,0.0000000000000000,0.6373128616726825
5.1972312431294636,0.4446576302949153,1.2446549251996530,0.5553450748003473,0.0035213086346808,-0.0004703065651840,5.2005360813171633,8.0000000000000000,0.0000000000000000,0.6498091922937418
5.2972012516751645,0.4450143466816313,1.2450090346075415,0.5549909653924586,0.0035683281001477,-0.0004725802278238,5.3005628831846119,8.0000000000000000,0.0000000000000000,0.6623055229146732
5.3971712601439714,0.4453710849041058,1.2453631603152269,0.5546368396847732,0.0036157969350301,-0.0004748542175970,5.4005897285795355,8.0000000000000000,0.0000000000000000,0.6748018535357324
5.4971412343732666,0.4457372922088574,1.2457310784081574,0.5542689215918426,0.0036632710649456,-0.0004767667941263,5.5006166775754624,8.0000000000000000,0.0000000000000000,0.6872981841566562
5.5971112085197765,0.4461035224080489,1.2460990298484522,0.5539009701515478,0.0037111223028463,-0.0004786788865363,5.6006436480798101,8.0000000000000000,0.0000000000000000,0.6997945147777155
5.6970811472442575,0.4464792970851483,1.2464745301463893,0.5535254698536106,0.0037589787389847,-0.0004815791300923,5.7006707357087452,8.0000000000000000,0.0000000000000000,0.7122908453986321
5.7970510858799127,0.4468550956960146,1.2468500493738690,0.5531499506261310,0.0038074098553231,-0.0004844822864520,5.8006977358524399,8.0000000000000000,0.0000000000000000,0.7247871760196912
5.8970209877369770,0.4472405536828013,1.2472327517124639,0.5527672482875362,0.0038558467522889,-0.0004870303582500,5.9007251836214580,8.0000000000000000,0.0000000000000000,0.7372835066405992
5.9969908894985098,0.4476260367591238,1.2476154727086746,0.5523845272913257,0.0039047873333895,-0.0004895779747209,6.0007512878168612,8.0000000000000000,0.0000000000000000,0.7497798372616584
6.0969607531475383,0.4480212799142271,1.2480119304764470,0.5519880695235534,0.0039537336040787,-0.0004879819289597,6.1007824193974525,8.0000000000000000,0.0000000000000000,0.7622761678825578
6.1969306166941500,0.4484165492964316,1.2484084251574152,0.5515915748425855,0.0040023550697310,-0.0004863748599712,6.2007964530730479,8.0000000000000000,0.0000000000000000,0.7747724985036171
6.2969004414358825,0.4488215138122342,1.2488099780024480,0.5511900219975525,0.0040509800209736,-0.0005007107349753,6.3008806179956274,8.0000000000000000,0.0000000000000000,0.7872688291245132
6.3968702660698504,0.4492265052520355,1.2492115448943220,0.5507884551056782,0.0041024678199666,-0.0005150917173152,6.4007793778627189,8.0000000000000000,0.0000000000000000,0.7997651597455725
6.4968400485798758,0.4496417642181553,1.2493537760384938,0.5506462239615062,0.0041539681233687,-0.0005597282007357,6.5014939865119548,8.0000000000000000,0.0000000000000000,0.8122614903664430
6.5968098309691845,0.4500570526083895,1.2494952639924914,0.5505047360075084,0.0042143805984349,-0.0006044572517867,6.5973974933432187,8.0000000000000000,0.0000000000000000,0.8247578209875024
6.6967795625752169,0.4504843904154328,1.2412903084789224,0.5587096915210776,0.0042748240860013,-0.0006957320559272,6.7064928012720246,8.0000000000000000,0.0000000000000000,0.8372541516082933
6.7967492940311063,0.4509117638472006,1.2330606762731546,0.5669393237268454,0.0043534861631460,-0.0007871561443932,6.8156703658926876,8.0000000000000000,0.0000000000000000,0.8497504822293527
6.8967189571678054,0.4513548293023631,1.2252887044577985,0.5747112955422015,0.0044322091008901,-0.0007582302941829,6.9063414917665060,8.0000000000000000,0.0000000000000000,0.8622468128499430
6.9966886200964264,0.4517979425506600,1.2175181265369048,0.5824818734630950,0.0045050877062314,-0.0007289443435204,6.9971323159645609,8.0000000000000000,0.0000000000000000,0.8747431434710023
7.0966582175916466,0.4522555793003183,1.2104047867045487,0.5895952132954513,0.0045779551732235,-0.0006029636243518,7.0894127563776763,8.0000000000000000,0.0000000000000000,0.8872394740916479
7.1966278148815768,0.4527132616160851,1.2032935088943753,0.5967064911056246,0.0046256450310673,-0.0004766646684418,7.1989327506445075,8.0000000000000000,0.0000000000000000,0.8997358047127074
7.2965973682746634,0.4531804334354427,1.2035508831708746,0.5964491168291255,0.0046732601218984,-0.0004365685458381,7.2994715959524932,8.0000000000000000,0.0000000000000000,0.9122321353335849
7.3965669215261221,0.4536476358720303,1.2038320318960620,0.5961679681039380,0.0047129331092675,-0.0003967360410514,7.3993847791298917,8.0000000000000000,0.0000000000000000,0.9247284659546444
7.4965364375367294,0.4541227398715690,1.2042195453258870,0.5957804546741133,0.0047525840377103,-0.0003814629832600,7.4994457547549223,8.0000000000000000,0.0000000000000000,0.9372247965755741
7.5965059534238240,0.4545978700778841,1.2046074115309844,0.5953925884690161,0.0047892033102033,-0.0003662662304047,7.5994608272935258,8.0000000000000000,0.0000000000000000,0.9497211271966336
7.6964754343705231,0.4550802956980383,1.2050881303149994,0.5949118696850011,0.0048258157802774,-0.0003543780823775,7.6994859012917756,8.0000000000000000,0.0000000000000000,0.9622174578175795
7.7964449151982231,0.4555627461648905,1.2055691653360414,0.5944308346639592,0.0048600581211189,-0.0003424989971365,7.7995064909998177,8.0000000000000000,0.0000000000000000,0.9747137884386389
7.8964143628718144,0.4560520181619891,1.2060592571683799,0.5939407428316205,0.0048942954715667,-0.0003292390165045,7.8995265377068460,8.0000000000000000,0.0000000000000000,0.9872101190595964
7.9963838104294958,0.4565413140080033,1.2065493806644538,0.5934506193355465,0.0049258865947761,-0.0003159718572912,7.9995449897076085,8.0000000000000000,0.0000000000000000,0.9997064496806558
8.0963532269903471,0.4570369022983989,1.2070443416667862,0.5929556583332141,0.0049574712922971,-0.0003026509681491,8.0995621407575520,8.0000000000000000,0.0000000000000000,1.0122027803016262
8.1963226434400482,0.4575325131529575,1.2075393200159990,0.5924606799840013,0.0049863990197483,-0.0002893275213159,8.1995778977981146,8.0000000000000000,0.0000000000000000,1.0246991109226857
8.2962920311612027,0.4580338852185925,1.2080387664251511,0.5919612335748492,0.0050153198101230,-0.0002762395350342,8.2995923026471559,8.0000000000000000,0.0000000000000000,1.0371954415436688
8.3962614187767564,0.4585352784613928,1.2085382292580797,0.5914617707419204,0.0050416307087144,-0.0002631500903728,8.3996053290877626,8.0000000000000000,0.0000000000000000,1.0496917721647281
8.4962307799764947,0.4590419110951768,1.2090452714161248,0.5909547285838752,0.0050679343786391,-0.0002499735344435,8.4996170019852464,8.0000000000000000,0.0000000000000000,1.0621881027857227
8.5962001410767499,0.4595485634608297,1.2095523421183749,0.5904476578816251,0.0050916107396410,-0.0002367942357856,8.5996273009463167,8.0000000000000000,0.0000000000000000,1.0746844334067820
8.6961694781740633,0.4600599299154142,1.2100630397248107,0.5899369602751893,0.0051152793235916,-0.0002236170941161,8.6996362493620829,8.0000000000000000,0.0000000000000000,1.0871807640277877
8.7961388151788231,0.4605713145469291,1.2105737513161301,0.5894262486838699,0.0051363210298905,-0.0002104376205102,8.7996438289047063,8.0000000000000000,0.0000000000000000,1.0996770946488470
8.8961081306676508,0.4610868880519201,1.2110877790492913,0.5889122209507088,0.0051573544928876,-0.0001972770486520,8.8996500621721797,8.0000000000000000,0.0000000000000000,1.1121734252698632
8.9960774460715776,0.4616024780856827,1.2116018198675340,0.5883981801324661,0.0051757648574728,-0.0001841142133216,8.9996549329145754,8.0000000000000000,0.0000000000000000,1.1246697558909224
9.0960467425089178,0.4621217325334148,1.2121211704381378,0.5878788295618621,0.0051941665261948,-0.0001709431914269,9.0996584626900230,8.0000000000000000,0.0000000000000000,1.1371660865119477
9.1960160388697076,0.4626410017712762,1.2126405424397060,0.5873594575602941,0.0052099434596726,-0.0001577697339083,9.1996606375376206,8.0000000000000000,0.0000000000000000,1.1496624171330070
9.2959853188728658,0.4631634106366291,1.2131622844712691,0.5868377155287309,0.0052257112103054,-0.0001446018378304,9.2996614776863868,8.0000000000000000,0.0000000000000000,1.1621587477540412
9.3959545988085296,0.4636858324561037,1.2136840362815899,0.5863159637184099,0.0052388553376557,-0.0001314316191092,9.3996609716983404,8.0000000000000000,0.0000000000000000,1.1746550783751004
9.4959238650439843,0.4642108693391710,1.2142079237318331,0.5857920762681667,0.0052519898177685,-0.0001182668953924,9.4996591381772948,8.0000000000000000,0.0000000000000000,1.1871514089961417
9.5958931312216791,0.4647359172475035,1.2147318201860622,0.5852681798139374,0.0052625017732773,-0.0001050998462648,9.5996559684161582,8.0000000000000000,0.0000000000000000,1.1996477396172009
9.6958623863967617,0.4652630558754127,1.2152587694844030,0.5847412305155966,0.0052730036166029,-0.0000919286881980,9.6996514791487893,8.0000000000000000,0.0000000000000000,1.2121440702382484
9.7958316415244653,0.4657902035067707,1.2157857319294738,0.5842142680705259,0.0052808821137778,-0.0000787551257469,9.7996456645715320,8.0000000000000000,0.0000000000000000,1.2246404008593079
9.8958008883810571,0.4663189173496036,1.2163137950814344,0.5836862049185655,0.0052887500180339,-0.0000655879258479,9.8996385393009945,8.0000000000000000,0.0000000000000000,1.2371367314803603
9.9957701352012887,0.4668476380779520,1.2168418630724187,0.5831581369275814,0.0052939958482761,-0.0000524184006668,9.9996301006082113,8.0000000000000000,0.0000000000000000,1.2496330621014198
10.0957393765053212,0.4673774007641529,1.2173708867633428,0.5826291132366573,0.0052992306206796,-0.0000392538950407,10.0996203607840940,8.0000000000000000,0.0000000000000000,1.2621293927224759
10.1957086177846090,0.4679071681249813,1.2178999147419081,0.5821000852580920,0.0053018443226855,-0.0000260870528028,10.1996093203132059,8.0000000000000000,0.0000000000000000,1.2746257233435354
10.2956778563180116,0.4684374533907880,1.2184297527931007,0.5815702472068993,0.0053044464996677,-0.0000129153218204,10.2995969889426977,8.0000000000000000,0.0000000000000000,1.2871220539645940
