# x_m,y_m,w_tr_right_m,w_tr_left_m,psi,kappa,s,velocity,acceleration,time
-0.0010761082943067,0.0618741281066365,0.9618919586724394,0.9381080413275608,0.0030766495192238,0.0019930690420898,0.0000000000000000,8.0000000000000000,0.0000000000000000,0.0000000000000000
0.0507384070595361,0.0620335437133863,0.9620434249500321,0.9379565750499680,0.0029733791239746,0.0029775116072545,0.0518147605870112,8.0000000000000000,0.0000000000000000,0.0064768450733764
0.1025538049392050,0.0621822600353279,0.9622167136214379,0.9377832863785622,0.0027680888840782,0.0039378120770368,0.1036303718829595,8.0000000000000000,0.0000000000000000,0.0129537964853699
0.1543700170205886,0.0623204059536354,0.9628332050307812,0.9371667949692190,0.0025652957531526,0.0038895723689784,0.1554467681177197,8.0000000000000000,0.0000000000000000,0.0194308460147150
0.2061869749795779,0.0624481103494826,0.9624521140790997,0.9375478859209004,0.0023649988410177,0.0038413559463322,0.2072638834420639,8.0000000000000000,0.0000000000000000,0.0259079854302580
0.2580046104920615,0.0625655021040438,0.9625824834916471,0.9374175165083530,0.0021671972759780,0.0037931622729438,0.2590816519286424,8.0000000000000000,0.0000000000000000,0.0323852064910803
0.3098228552339303,0.0626727100984927,0.9627022136128875,0.9372977863871126,0.0019718902048502,0.0037449908120003,0.3109000075729725,8.0000000000000000,0.0000000000000000,0.0388625009466216
0.3616416408810742,0.0627698632140036,0.9627966742737790,0.9372033257262211,0.0017790767929871,0.0036968410260565,0.3627188842944193,8.0000000000000000,0.0000000000000000,0.0453398605368024
0.4134608991093830,0.0628570903317503,0.9628786838651140,0.9371213161348861,0.0015887562243024,0.0036487123770289,0.4145382159371780,8.0000000000000000,0.0000000000000000,0.0518172769921473
0.4652805615947454,0.0629345203329070,0.9629498353942397,0.9370501646057604,0.0014009277012956,0.0036006043261892,0.4663579362712550,8.0000000000000000,0.0000000000000000,0.0582947420339069
0.5171005600130527,0.0630022820986476,0.9630218548983305,0.9369781451016697,0.0012155904450768,0.0035525163341644,0.5181779789934515,8.0000000000000000,0.0000000000000000,0.0647722473741814
0.5689208260401942,0.0630605045101460,0.9630779410965513,0.9369220589034488,0.0010327436953910,0.0035044478609439,0.5699982777283384,8.0000000000000000,0.0000000000000000,0.0712497847160423
0.6207412913520599,0.0631093164485765,0.9631247532918549,0.9368752467081453,0.0008523867106427,0.0034563983658858,0.6218187660292375,8.0000000000000000,0.0000000000000000,0.0777273457536547
0.6725618876245401,0.0631488467951128,0.9631624190935862,0.9368375809064139,0.0006745187679191,0.0034083673077082,0.6736393773791982,8.0000000000000000,0.0000000000000000,0.0842049221723998
0.7243825465335240,0.0631792244309292,0.9631910659486648,0.9368089340513354,0.0004991391630154,0.0033603541444875,0.7254600451919736,8.0000000000000000,0.0000000000000000,0.0906825056489967
0.7762031997549025,0.0632005782371995,0.9632108211203283,0.9367891788796718,0.0003262472104575,0.0033123583336622,0.7772807028129978,8.0000000000000000,0.0000000000000000,0.0971600878516247
0.8280237789645639,0.0632130370950978,0.9632218116690160,0.9367781883309841,0.0001558422435273,0.0032643793320376,0.8291012835203571,8.0000000000000000,0.0000000000000000,0.1036376604400446
0.8798442158383996,0.0632167298857982,0.9632241644351499,0.9367758355648502,-0.0000120763857154,0.0032164165957856,0.8809217205257692,8.0000000000000000,0.0000000000000000,0.1101152150657212
0.9316644420522989,0.0632117854904745,0.9632180060236289,0.9367819939763712,-0.0001775093064083,0.0031684695804360,0.9327419469755518,8.0000000000000000,0.0000000000000000,0.1165927433719440
0.9834843892821520,0.0631983327903009,0.9632034627898854,0.9367965372101147,-0.0003404571288632,0.0031205377408782,0.9845618959515967,8.0000000000000000,0.0000000000000000,0.1230702369939496
1.0353039892038485,0.0631765006664513,0.9631806608273954,0.9368193391726047,-0.0005009204445428,0.0030726205313725,1.0363815004723407,8.0000000000000000,0.0000000000000000,0.1295476875590426
1.0871231734932789,0.0631464180000998,0.9631497259565646,0.9368502740434356,-0.0006588998260380,0.0030247174055490,1.0882006934937374,8.0000000000000000,0.0000000000000000,0.1360250866867172
1.1389418738263319,0.0631082136724204,0.9631107837149410,0.9368892162850592,-0.0008143958270448,0.0029768278163822,1.1400194079102239,8.0000000000000000,0.0000000000000000,0.1425024259887780
1.1907600218788983,0.0630620165645870,0.9630639593487377,0.9369360406512625,-0.0009674089823399,0.0029289512162185,1.1918375765556948,8.0000000000000000,0.0000000000000000,0.1489796970694618
1.2425775493268680,0.0630079555577738,0.9630093778056688,0.9369906221943314,-0.0011179398077601,0.0028810870567757,1.2436551322044664,8.0000000000000000,0.0000000000000000,0.1554568915255583
1.2943943878461299,0.0629461595331547,0.9629471637291362,0.9370528362708639,-0.0012659888001780,0.0028332347891277,1.2954720075722452,8.0000000000000000,0.0000000000000000,0.1619340009465307
1.3462104691125767,0.0628767573719037,0.9628774414538276,0.9371225585461725,-0.0014115564374806,0.0027853938637045,1.3472881353170989,8.0000000000000000,0.0000000000000000,0.1684110169146374
1.3980257248020944,0.0627998779551948,0.9628003350028125,0.9371996649971877,-0.0015546431785449,0.0027375637302975,1.3991034480404128,8.0000000000000000,0.0000000000000000,0.1748879310050516
1.4498400865905754,0.0627156501642021,0.9627159680862586,0.9372840319137415,-0.0016952494632174,0.0026897438380660,1.4509178782878678,8.0000000000000000,0.0000000000000000,0.1813647347859835
1.5016534861539093,0.0626242028800995,0.9652160502397620,0.9347839497602382,-0.0018333757122908,0.0026419336355217,1.5027313585503965,8.0000000000000000,0.0000000000000000,0.1878414198187996
1.5534658551679852,0.0625256649840611,0.9656853842506394,0.9343146157493607,-0.0019690223274818,0.0025941325705385,1.5545438212651501,8.0000000000000000,0.0000000000000000,0.1943179776581438
1.6052771253086935,0.0624201653572610,0.9658116727844064,0.9341883272155938,-0.0021021896914093,0.0025463400903569,1.6063551988164633,8.0000000000000000,0.0000000000000000,0.2007943998520579
1.6570872282519251,0.0623078328808730,0.9659390513454897,0.9340609486545104,-0.0022328781675731,0.0024985556415614,1.6581654235368166,8.0000000000000000,0.0000000000000000,0.2072706779421021
1.7088960956735679,0.0621887964360712,0.9621884545580359,0.9378115454419642,-0.0023610881003300,0.0024507786700930,1.7099744277077960,8.0000000000000000,0.0000000000000000,0.2137468034634745
1.7607036592495129,0.0620631849040297,0.9620629112164272,0.9379370887835730,-0.0024868198148735,0.0024030086212571,1.7617821435610601,8.0000000000000000,0.0000000000000000,0.2202227679451325
1.8125098506556498,0.0619311271659224,0.9619309727284708,0.9380690272715293,-0.0026100736172119,0.0023552449397100,1.8135885032792982,8.0000000000000000,0.0000000000000000,0.2266985629099123
1.8643146015678693,0.0617927521029234,0.9617927605015215,0.9382072394984786,-0.0027308497941463,0.0023074870694541,1.8653934389971925,8.0000000000000000,0.0000000000000000,0.2331741798746491
1.9161178436620609,0.0616481885962067,0.9616483957351353,0.9383516042648649,-0.0028491486132485,0.0022597344538537,1.9171968828023769,8.0000000000000000,0.0000000000000000,0.2396496103502971
1.9679195086141144,0.0614975655269462,0.9614979994532848,0.9385020005467153,-0.0029649703228414,0.0022119865356182,1.9689987667363980,8.0000000000000000,0.0000000000000000,0.2461248458420497
2.0197195280999174,0.0613410117763160,0.9613416925432138,0.9386583074567864,-0.0030783151519749,0.0021642427567957,2.0207990227956727,8.0000000000000000,0.0000000000000000,0.2525998778494591
2.0715178337953644,0.0611786562254902,0.9611795958020237,0.9388204041979764,-0.0031891833104063,0.0021165025588053,2.0725975829324552,8.0000000000000000,0.0000000000000000,0.2590746978665569
2.1233143573763416,0.0610106277556426,0.9610118299923023,0.9389881700076979,-0.0032975749885797,0.0020687653823998,2.1243943790557811,8.0000000000000000,0.0000000000000000,0.2655492973819726
2.1751090305187404,0.0608370552479474,0.9608385159083450,0.9391614840916551,-0.0034034903576030,0.0020210306676685,2.1761893430324397,8.0000000000000000,0.0000000000000000,0.2720236678790550
2.2269017848984514,0.0606580675835786,0.9606597744548369,0.9393402255451633,-0.0035069295692276,0.0019732978540606,2.2279824066879241,8.0000000000000000,0.0000000000000000,0.2784978008359905
2.2786925521913637,0.0604737936437102,0.9604757267402282,0.9395242732597719,-0.0036078927558283,0.0019255663803579,2.2797735018073895,8.0000000000000000,0.0000000000000000,0.2849716877259237
2.3304812640733661,0.0602843623095161,0.9602864941874988,0.9397135058125013,-0.0037063800303807,0.0018778356846703,2.3315625601366103,8.0000000000000000,0.0000000000000000,0.2914453200170763
2.3822678522203491,0.0600899024621703,0.9600921986655695,0.9399078013344306,-0.0038023914864407,0.0018301052044599,2.3833495133829392,8.0000000000000000,0.0000000000000000,0.2979186891728674
2.4340522483082023,0.0598905429828470,0.9598929626453166,0.9401070373546835,-0.0038959271981247,0.0017823743765339,2.4351342932162616,8.0000000000000000,0.0000000000000000,0.3043917866520327
2.4858343840128181,0.0596864127527202,0.9596889093850138,0.9403110906149863,-0.0039869872200888,0.0017346426370201,2.4869168312699541,8.0000000000000000,0.0000000000000000,0.3108646039087443
2.5376141910100838,0.0594776406529637,0.9594801631511120,0.9405198368488882,-0.0040755715875069,0.0016869094213765,2.5386970591418332,8.0000000000000000,0.0000000000000000,0.3173371323927291
2.5893916009758899,0.0592643555647517,0.9592668494816305,0.9407331505183696,-0.0041616803160509,0.0016391741643986,2.5904749083951191,8.0000000000000000,0.0000000000000000,0.3238093635493899
2.6411665455861271,0.0590466863692582,0.9590490955011586,0.9409509044988416,-0.0042453134018701,0.0015914363002166,2.6422503105593882,8.0000000000000000,0.0000000000000000,0.3302812888199235
2.6929389565166844,0.0588247619476571,0.9588270302986516,0.9411729697013486,-0.0043264708215713,0.0015436952622724,2.6940231971315254,8.0000000000000000,0.0000000000000000,0.3367528996414407
2.7447087654434514,0.0585987111811225,0.9586007853820180,0.9413992146179821,-0.0044051525321966,0.0014959504833360,2.7457934995766822,8.0000000000000000,0.0000000000000000,0.3432241874470853
2.7964759040423193,0.0583686629508284,0.9583704952270830,0.9416295047729172,-0.0044813584712051,0.0014482013955170,2.7975611493292316,8.0000000000000000,0.0000000000000000,0.3496951436661540
2.8482403039891775,0.0581347461379488,0.9581362979431965,0.9418637020568036,-0.0045550885564520,0.0014004474302250,2.8493260777937204,8.0000000000000000,0.0000000000000000,0.3561657597242150
2.9000018969599139,0.0578970896236577,0.9578983360838257,0.9421016639161744,-0.0046263426861672,0.0013526880181961,2.9010882163458223,8.0000000000000000,0.0000000000000000,0.3626360270432278
2.9517606146304232,0.0576558222891292,0.9576566513647506,0.9423433486352495,-0.0046951207389372,0.0013049225894875,2.9528474963333009,8.0000000000000000,0.0000000000000000,0.3691059370416626
3.0035163886765899,0.0574110730155372,0.9574115058274861,0.9425884941725140,-0.0047614225736832,0.0012571505734549,3.0046038490769478,8.0000000000000000,0.0000000000000000,0.3755754811346185
3.0552691507743073,0.0571629706840558,0.9571630725697836,0.9428369274302165,-0.0048252480296413,0.0012093713987790,3.0563572058715542,8.0000000000000000,0.0000000000000000,0.3820446507339443
3.1070188325994650,0.0569116441758590,0.9569115256674341,0.9430884743325660,-0.0048865969263441,0.0011615844934602,3.1081074979868535,8.0000000000000000,0.0000000000000000,0.3885134372483567
3.1587653658279526,0.0566572223721208,0.9566570519677340,0.9433429480322661,-0.0049454690635997,0.0011137892847848,3.1598546566684775,8.0000000000000000,0.0000000000000000,0.3949818320835597
3.2105086821356581,0.0563998341540151,0.9563998541805783,0.9436001458194219,-0.0050018642214709,0.0010659851993365,3.2115986131389107,8.0000000000000000,0.0000000000000000,0.4014498266423638
3.2622487131984732,0.0561396084027161,0.9561401548191796,0.9438598451808206,-0.0050557821602557,0.0010181716630194,3.2633392985984475,8.0000000000000000,0.0000000000000000,0.4079174123248059
3.3139853906922867,0.0558766739993977,0.9558782012653730,0.9441217987346271,-0.0051072226204689,0.0009703481010471,3.3150766442261399,8.0000000000000000,0.0000000000000000,0.4143845805282675
3.3657186462929913,0.0556111598252339,0.9556142723373668,0.9443857276626333,-0.0051561853228224,0.0009225139379120,3.3668105811807592,8.0000000000000000,0.0000000000000000,0.4208513226475949
3.4174484116764727,0.0553431947613989,0.9553486868840866,0.9446513131159135,-0.0052026699682031,0.0008746685973967,3.4185410406017374,8.0000000000000000,0.0000000000000000,0.4273176300752172
3.4691746185186254,0.0550729076890664,0.9550818151399073,0.9449181848600928,-0.0052466762376555,0.0008268115025915,3.4702679536101377,8.0000000000000000,0.0000000000000000,0.4337834942012672
3.5208971984953359,0.0548004274894107,0.9548140938760612,0.9451859061239389,-0.0052882037923618,0.0007789420758699,3.5219912513095926,8.0000000000000000,0.0000000000000000,0.4402489064136991
3.5726160832824947,0.0545258830436056,0.9545460468234443,0.9454539531765558,-0.0053272522736219,0.0007310597388869,3.5737108647872677,8.0000000000000000,0.0000000000000000,0.4467138580984085
3.6243312045559923,0.0542494032328253,0.9542783124775924,0.9457216875224077,-0.0053638213028335,0.0006831639125863,3.6254267251148145,8.0000000000000000,0.0000000000000000,0.4531783406393518
3.6760424939917193,0.0539711169382437,0.9540116823142227,0.9459883176857774,-0.0053979104814741,0.0006352540171970,3.6771387633493231,8.0000000000000000,0.0000000000000000,0.4596423454186654
3.7277498832655640,0.0536911530410348,0.9537471537452948,0.9462528462547053,-0.0054295193910805,0.0005873294722228,3.7288469105342750,8.0000000000000000,0.0000000000000000,0.4661058638167844
3.7794533040534168,0.0534096404223727,0.9534788279124780,0.9465211720875222,-0.0054586475932299,0.0005393896964477,3.7805510977005019,8.0000000000000000,0.0000000000000000,0.4725688872125627
3.8311526880311684,0.0531267079634313,0.9531957526136157,0.9468042473863845,-0.0054852946295210,0.0004914341079236,3.8322512558671393,8.0000000000000000,0.0000000000000000,0.4790314069833924
3.8828479668747091,0.0528424845453847,0.9528690012597815,0.9471309987402187,-0.0055094600215535,0.0004434621239684,3.8839473160425801,8.0000000000000000,0.0000000000000000,0.4854934145053225
3.9345390722599265,0.0525570990494069,0.9525680348889050,0.9474319651110952,-0.0055311432709100,0.0003954731611844,3.9356392092254282,8.0000000000000000,0.0000000000000000,0.4919549011531785
3.9862259358627123,0.0522706803566719,0.9522935724032685,0.9477064275967316,-0.0055503438591373,0.0003474666354240,3.9873268664054606,8.0000000000000000,0.0000000000000000,0.4984158583006826
4.0379084893589541,0.0519833573483537,0.9520129295911158,0.9479870704088843,-0.0055670612477254,0.0002994419618080,4.0390102185645747,8.0000000000000000,0.0000000000000000,0.5048762773205718
4.0895866644245480,0.0516952589056264,0.9517179952889303,0.9482820047110698,-0.0055812948780911,0.0002513985547279,4.0906891966777579,8.0000000000000000,0.0000000000000000,0.5113361495847197
4.1412603927353766,0.0514065139096639,0.9514192173966597,0.9485807826033404,-0.0055930441715573,0.0002033358278081,4.1423637317140214,8.0000000000000000,0.0000000000000000,0.5177954664642527
4.1929296059673327,0.0511172512416402,0.9511214528514932,0.9488785471485069,-0.0056023085293333,0.0001552531939386,4.1940337546373803,8.0000000000000000,0.0000000000000000,0.5242542193296725
4.2445942357963071,0.0508275997827294,0.9516967333215576,0.9483032666784426,-0.0056090873324981,0.0001071500652711,4.2456991964077995,8.0000000000000000,0.0000000000000000,0.5307123995509749
4.2962542138981874,0.0505376884141055,0.9506249313264754,0.9493750686735247,-0.0056133799419804,0.0000590258531942,4.2973599879821496,8.0000000000000000,0.0000000000000000,0.5371699984977687
4.3479094719488680,0.0502476460169425,0.9503164382309712,0.9496835617690289,-0.0056151856985396,0.0000108799683421,4.3490160603151731,8.0000000000000000,0.0000000000000000,0.5436270075393966
4.3995599416242337,0.0499576014724144,0.9499015694008579,0.9500984305991422,-0.0056145039227473,-0.0000372881794090,4.4006673443604285,8.0000000000000000,0.0000000000000000,0.5500834180450536
4.4512055546001763,0.0496676836616952,0.9494745231019729,0.9505254768980272,-0.0056113339149684,-0.0000854791809381,4.4523137710712648,8.0000000000000000,0.0000000000000000,0.5565392213839081
4.5028462425525859,0.0493780214659590,0.9493638471683969,0.9506361528316032,-0.0056056749553430,-0.0001336936278855,4.5039552714017717,8.0000000000000000,0.0000000000000000,0.5629944089252215
4.5544819371573544,0.0490887437663797,0.9490487203403346,0.9509512796596655,-0.0055975263037675,-0.0001819321126674,4.5555917763077431,8.0000000000000000,0.0000000000000000,0.5694489720384679
4.6061125700903673,0.0487999794441313,0.9485491944900960,0.9514508055099041,-0.0055868871998754,-0.0002301952284666,4.6072232167476272,8.0000000000000000,0.0000000000000000,0.5759029020934534
4.6577380730275184,0.0485118573803880,0.9483191479769505,0.9516808520230496,-0.0055737568630194,-0.0002784835692277,4.6588495236835046,8.0000000000000000,0.0000000000000000,0.5823561904604381
4.7093583776446959,0.0482245064563236,0.9482120486022826,0.9517879513977175,-0.0055581344922535,-0.0003267977296783,4.7104706280820325,8.0000000000000000,0.0000000000000000,0.5888088285102541
4.7609734156177907,0.0479380555531122,0.9479089280583168,0.9520910719416833,-0.0055400192663131,-0.0003751383053284,4.7620864609154179,8.0000000000000000,0.0000000000000000,0.5952608076144272
4.8125831186226895,0.0476526335519279,0.9476140826692175,0.9523859173307826,-0.0055194103435976,-0.0004235058924569,4.8136969531623688,8.0000000000000000,0.0000000000000000,0.6017121191452961
4.8641874183352876,0.0473683693339445,0.9473512580138501,0.9526487419861500,-0.0054963068621523,-0.0004719010881308,4.8653020358090737,8.0000000000000000,0.0000000000000000,0.6081627544761342
4.9157862464314697,0.0470853917803362,0.9470809117086477,0.9529190882913524,-0.0054707079396494,-0.0005203244902089,4.9169016398501437,8.0000000000000000,0.0000000000000000,0.6146127049812680
4.9673795345871294,0.0468038297722770,0.9468032299615713,0.9531967700384288,-0.0054426126733700,-0.0005687766973323,4.9684956962895956,8.0000000000000000,0.0000000000000000,0.6210619620361995
5.0189672144781534,0.0465238121909408,0.9465197196151274,0.9534802803848728,-0.0054120201401862,-0.0006172583089420,5.0200841361418007,8.0000000000000000,0.0000000000000000,0.6275105170177251
5.0705492177804334,0.0462454679175017,0.9462314672269658,0.9537685327730343,-0.0053789293965418,-0.0006657699252646,5.0716668904324642,8.0000000000000000,0.0000000000000000,0.6339583613040580
5.1221254761698614,0.0459689258331338,0.9459483552846789,0.9540516447153212,-0.0053433394784368,-0.0007143121473212,5.1232438901995838,8.0000000000000000,0.0000000000000000,0.6404054862749480
5.1736959213223237,0.0456943148190109,0.9456809449657652,0.9543190550342350,-0.0053052494014068,-0.0007628855769546,5.1748150664944115,8.0000000000000000,0.0000000000000000,0.6468518833118014
5.2252604849137114,0.0454217637563071,0.9453727185074866,0.9546272814925135,-0.0052646581605051,-0.0008114908167943,5.2263803503824313,8.0000000000000000,0.0000000000000000,0.6532975437978039
5.2768190986199155,0.0451514015261965,0.9450649563972345,0.9549350436027656,-0.0052215647302871,-0.0008601284702757,5.2779396729443215,8.0000000000000000,0.0000000000000000,0.6597424591180402
5.3283716941168251,0.0448833570098530,0.9448163942501293,0.9551836057498708,-0.0051759680647898,-0.0009087991416501,5.3294929652769234,8.0000000000000000,0.0000000000000000,0.6661866206596154
