# x_m,y_m,w_tr_right_m,w_tr_left_m,psi,kappa,s,velocity,acceleration,time
0.0329574872946593,-0.3340510180871880,0.5546747034080108,1.1266640488962358,0.1565100234554444,0.0000122849802032,0.0000000000000000,7.2992064122860842,-8.3793891938767811,0.0000000000000000
0.1317192829212997,-0.3184663480033172,0.5555411810092267,1.0972526614026796,0.1565087951555835,0.0023372915885566,0.1005152045066428,7.1835093605489986,-8.2624472712217187,0.0138073371531222
0.2304811167201386,-0.3028819205554929,0.5563970796545309,1.0679558974033725,0.1560426405400355,0.0047557547992380,0.1999232585299951,7.0675726972457138,-6.5661759257033809,0.0278390954805968
0.3292573991545505,-0.2873893337650741,0.5532487164447774,1.0820455024891218,0.1555577976189815,0.0397598904113407,0.2897343562558919,6.9740634119128755,-4.9448395936865603,0.0420801524353448
0.4280342693328610,-0.2719006861580562,0.5501222292085269,1.0960521948322184,0.1480919463080852,0.0746118256919593,0.3909062682965053,6.9028075716034305,-4.9221849851955808,0.0564902943538860
0.5270308626738999,-0.2578846694667717,0.5551738925209677,1.0790626486890864,0.1406378417029275,0.0441321882558723,0.5037209295203394,6.8311400340908461,-6.4280414415730576,0.0710504008367058
0.6260276828777607,-0.2438702711125262,0.5601653849121994,1.0622502123600233,0.1392669324786318,0.0143128062178487,0.5997508356061365,6.7363991328502122,-3.9046445467422934,0.0857890894562131
0.7250623334367725,-0.2301257374472541,0.5551231163835052,1.0749716022584108,0.1377757422285377,0.1030388716629948,0.6929151946299192,6.6781936429872308,0.0000000000000000,0.1006958214688733
0.8241000286978309,-0.2164067138471772,0.5501426539097637,1.0875987232325763,0.1186625324775079,0.1905903510716585,0.7938642298764766,6.6781936429872308,0.0000000000000000,0.1156674421525628
0.9235876058556898,-0.2064570300190114,0.5542945875822444,1.0862967694432506,0.0996639134938544,0.1020946716955421,0.9036583831359311,6.6781936429872308,3.9467542321393547,0.1306391358663533
1.0230754567872598,-0.1965101234112412,0.5584358836837346,1.0851852155307065,0.0982468921563275,0.0141647267026938,0.9995765929423477,6.7370241074795612,7.8570985542520457,0.1455451728354812
1.1225908322036193,-0.1868424311963240,0.5615077065340605,1.1032159616250687,0.0968314251689750,0.0133024409663047,1.0913213733943754,6.8526389122892288,7.8753351966654979,0.1602598673262484
1.2221064443329155,-0.1771772075301822,0.5644774644981012,1.1208935124139781,0.0955868331462018,0.0134300266783360,1.1929762538000817,6.9665969448298108,7.8481941629289906,0.1747301126802280
1.3216455760889592,-0.1677572570911213,0.5573061289256891,1.1034778322240573,0.0941458531328030,0.0836727687314889,1.3033136334525965,7.0783372792038302,4.3077550963822047,0.1889678254653966
1.4211880057886797,-0.1583789320991196,0.5502324995107950,1.0864825824154596,0.0788550314114413,0.1520698597761811,1.3993958003143434,7.1389260580210658,0.7498713280279599,0.2030328726794595
1.5209686268874785,-0.1520069724194480,0.5502156207980665,1.0998525876120531,0.0637368827810147,0.0879494471661936,1.4910678457515771,7.1494206294164204,4.0045330188364607,0.2170280355868793
1.6207496916348669,-0.1456422405108354,0.5503259347876016,1.1131933289526537,0.0612679808146464,0.0245627032475109,1.6063628365241676,7.2052059381423001,7.2248274423982730,0.2309585759179188
1.7205605596723428,-0.1397630536089810,0.5589807614596115,1.1245681918724033,0.0588251349676177,0.0150507580868809,1.7059626877063652,7.3047741254243457,7.6968956870892846,0.2447399690481877
1.8203715459894294,-0.1338858943168315,0.5674234396484988,1.1354765953228558,0.0582583147582389,0.0056697271535507,1.8180256767869172,7.4093762111466166,8.1887384663547422,0.2583301344830304
1.9201890147738496,-0.1281198608021308,0.5642390452977172,1.1208200830760453,0.0576913724511630,0.0057138723939591,1.9172088207014433,7.5190650588579793,4.0525657919943914,0.2717252194722560
2.0200066009154058,-0.1223558794080085,0.5610162716636533,1.1061603068413211,0.0571157246180769,0.0057748938044006,2.0179509149240404,7.5727618324358525,-8.1468889183544047,0.2849752877830403
2.1198306419546107,-0.1167047691078580,0.5556825539966692,1.0913210041740786,0.0565365799975606,0.0063375134336675,2.1186683872296608,7.4644227378464603,-8.1257006716102751,0.2982735045225998
2.2196548367985121,-0.1110564092305318,0.5505178791299185,1.0770211379158128,0.0558484263940355,0.0069195867243241,2.2134188207791534,7.3547759207034096,-8.0427346681576299,0.3117673337410618
2.3194865609546165,-0.1055426927850764,0.5536284783608342,1.0891286911772302,0.0551528858944048,0.0087123978056549,2.3148511715907736,7.2446146462195626,-7.9662127355498802,0.3254643259991791
2.4193185140586952,-0.1000332020068780,0.5567534188335996,1.1014280205400173,0.0541062279364279,0.0104887403030454,2.4030754557535032,7.1338247727087563,-7.9661395729669486,0.3393717971135767
2.5191615614267144,-0.0947284768218261,0.5605733011262619,1.1230203549504381,0.0530554762506037,0.0101215701751522,2.5060889145683869,7.0212879847091267,-8.0009418428575323,0.3534986884351301
2.6190048718439241,-0.0894287952693865,0.5642654954698897,1.1437546571554780,0.0520822404760797,0.0096332411678364,2.6151356313511802,6.9064140323397654,-8.0401363701090389,0.3678562421613717
2.7188580555616455,-0.0843184216571741,0.5631650444165499,1.1322835387968548,0.0511291388356760,0.0057880959658557,2.7158636564623548,6.7890195824100719,-8.2330249382514484,0.3824572942487633
2.8187112914252284,-0.0792090710341454,0.5619498890962547,1.1207019052375344,0.0509248080105638,0.0021741518946982,2.8167178621702176,6.6666668963579676,-8.2064777609677968,0.3973185010311748
2.9185665552186455,-0.0741395040143211,0.5562739348596808,1.1048223837217386,0.0506943785962586,0.0068574488128866,2.9176018044397671,6.5424320171719250,-7.9073298440392374,0.4124571369727644
3.0184221284526611,-0.0690761725183113,0.5507446466237155,1.0891119651481076,0.0495535395197504,0.0143774488175273,3.0184963320788554,6.4204521596176756,-3.8341501877665292,0.4278833124277065
3.1182886994300785,-0.0642344560629822,0.5504279744658341,1.0794115878350394,0.0478193527550583,0.1153328931735430,3.1194051466562889,6.3604637871562435,0.0000000000000000,0.4435291190663809
3.2181586573112053,-0.0595176140542126,0.5501401281359408,1.0699741260192870,0.0264909798371726,0.2101074041013418,3.2203457417128569,6.3604637871562435,0.0000000000000000,0.4592483004064206
3.3181408524807914,-0.0589389378993283,0.5508075297400832,1.0692493189013141,0.0058051934505881,0.1006988573977599,3.3213412275051111,6.3604637871562435,4.4261774160604945,0.4749678883374275
3.4181230255176880,-0.0583567691732577,0.5514728824486945,1.0686199932278218,0.0063544571332603,-0.0053918644908450,3.4227894962659371,6.4296650195870990,8.2770971285406691,0.4906024248518831
3.5181045246684475,-0.0576682602132053,0.5520758513092650,1.0708978435588465,0.0068833923948666,-0.0022263174451422,3.5238938790217094,6.5571140501812337,8.4042778235807898,0.5060002181379702
3.6180860277128359,-0.0569803236254604,0.5526403737989035,1.0738900375820579,0.0067996488002240,0.0009351918954965,3.6221852447448173,6.6840353907944010,8.4582190591001325,0.5211022106324413
3.7180676407776865,-0.0563085602952561,0.5521185351029556,1.0970671083972516,0.0066963841855048,0.0039454063307545,3.7230956104364963,6.8093832357574389,8.3170605826745838,0.5359218605004804
3.8180492808461954,-0.0556412728443937,0.5515875145689225,1.1201496635048092,0.0060106948262979,0.0072442445372208,3.8127213705990299,6.9304288328067809,8.1520528221358948,0.5504757519680373
3.9180317211360070,-0.0551066227572517,0.5507844011778883,1.1404313579694996,0.0052477690020238,0.0172379313351726,3.9145325955405905,7.0470555115086242,7.6439472405155779,0.5647821703937321
4.0180142144806306,-0.0545918934311765,0.5500155033031686,1.1599564215813176,0.0025636655498633,0.0263527303596684,4.0137196109419149,7.1546861179406598,7.1510160278536530,0.5788626713503002
4.1179980842431556,-0.0545939747579160,0.5501342694721938,1.1598519698496856,-0.0000219255626839,0.0130733921031008,4.1150390280529718,7.2539303799361017,7.8120845663532359,0.5927410155756354
4.2179819539947063,-0.0545962778363846,0.5502496855846152,1.1597503144153851,-0.0000505911174049,0.0002808029842780,4.2162519245352907,7.3608199848192912,8.4847856251324760,0.6064236125797136
4.3179658234735898,-0.0546040913492972,0.5502818542411125,1.1597181457588877,-0.0000780771007123,0.0001286765891906,4.3173882006784527,7.4751825563724568,4.6134714309845872,0.6199021583681206
4.4179496929535524,-0.0546118907377102,0.5503132455807066,1.1596867544192935,-0.0000763222840807,-0.0000172218337768,4.4185495466890101,7.5366371615404244,-8.4990217826894199,0.6332228445557995
4.5179335624592429,-0.0546193533439087,0.5503261027055895,1.1596738972944107,-0.0000746332895407,-0.0000090184516171,4.5197100461522153,7.4230296732725858,-8.4995030701730023,0.6465899697582823
4.6179174319650054,-0.0546268149879024,0.5503383932694051,1.1596616067305952,-0.0000745188846965,-0.0000010832351295,4.6208773342600979,7.3076496299349456,-8.4999421533470088,0.6601648861251626
4.7179013014724003,-0.0546342547168228,0.5503377798992534,1.1596622201007469,-0.0000744166774604,0.0000003304965492,4.7220432362872335,7.1904122896410883,-8.4998690287799388,0.6739576082612411
4.8178851709796842,-0.0546416959226667,0.5503366306719653,1.1596633693280349,-0.0000745849733443,0.0000026193023799,4.8232027957022305,7.0712325162385419,-8.4988864134181377,0.6879789741198222
4.9178690404845700,-0.0546491693053344,0.5503238070540946,1.1596761929459056,-0.0000749404534366,0.0000230542738299,4.9243500170626904,6.9500234671380534,-8.4972920534446104,0.7022407306846732
5.0178529099863809,-0.0546566815957286,0.5503107164885023,1.1596892835114978,-0.0000791950843695,0.0000581058999760,5.0254783894344399,6.8266860122165207,-8.4828109100034848,0.7167556436882264
5.1178367794240538,-0.0546650057673240,0.5502920555681998,1.1597079444318004,-0.0000865597589104,0.0003827678253174,5.1265781198247469,6.7012949037132632,-8.4663222628976129,0.7315374312152110
5.2178206487609975,-0.0546739907550300,0.5502726879084696,1.1597270198382630,-0.0001557363011611,0.0007793181594156,5.2276147929153973,6.5737631583364307,-8.3947188937133888,0.7466008485311004
5.3178045160900700,-0.0546961480032357,0.5502392325839581,1.1597543573309377,-0.0002423982496194,0.0025347143280110,5.3285815013585847,6.4448187794858578,-8.2943220723358753,0.7619610268149899
5.4177883807509364,-0.0547224625841941,0.5502022975551580,1.1595260060739581,-0.0006625973915761,0.0051577965153168,5.4286163006328012,6.3148311372436199,-7.5831998254096744,0.7776329094726199
5.5177721941513340,-0.0548286460845091,0.5500985119185873,1.1543854706494900,-0.0012737911513765,0.0238994660458815,5.5294929561984931,6.1936012919882959,-7.0011947318292957,0.7936195441448474
5.6177557860630776,-0.0549771794334075,0.5500095274783245,1.1481134531867048,-0.0054417155894591,0.0405513376844071,5.6285221955794293,6.0795300990560310,-6.9942418013016106,0.8099126480080590
5.7177352406143420,-0.0559167988526744,0.5501970262042534,1.1207055944086335,-0.0093827436904832,0.0182306664486752,5.7294917855981948,5.9633936229572591,-7.8495173525491850,0.8265172320928069
5.8177147226585069,-0.0568533979426091,0.5504022331526698,1.0940299949832557,-0.0090872607345867,-0.0016852231817336,5.8289610321427139,5.8303013021567205,-7.8391427947689927,0.8434727103499913
5.9176947150343358,-0.0577339327519692,0.5509361455649021,1.0809468185313540,-0.0090457534215909,0.0203812032367879,5.9305136897774240,5.6942811318995030,-7.0098922544004250,0.8608241190203351
6.0176740900903765,-0.0586622304113047,0.5513973667817054,1.0688338728757090,-0.0131628400999240,0.0480322187952811,6.0374624549995453,5.5698373313350737,-3.3303202281041653,0.8785767172127409
6.1176434427017483,-0.0603659778938903,0.5506784160724952,1.0724730295309091,-0.0186506387425944,0.1702953985539194,6.1380396631575325,5.5097306004450886,0.0000000000000000,0.8966250509383543
6.2175981166519954,-0.0623913736062835,0.5500243846926798,1.0767565201719631,-0.0472149482693527,0.2800001066947100,6.2381208691489851,5.5097306004450886,0.0000000000000000,0.9147702561279274
6.3173071182479950,-0.0698000993908139,0.5504568886822713,1.0918240357231535,-0.0746391974563581,0.1761668549270750,6.3389178860282449,5.5097306004450886,3.1520796561238078,0.9329170362583590
6.4170083913720948,-0.0773028975143584,0.5509477873560991,1.1067062516639621,-0.0824425141306622,0.0756898667273899,6.4389183332994131,5.5666364324297062,6.1545647075552319,0.9509704607249844
6.5165896302140522,-0.0862667743387277,0.5523456394476191,1.1187104981948732,-0.0897746766375958,0.0367412373112278,6.5395569845339416,5.6761039070343706,7.3162651007131885,0.9687568485210675
6.6161708527451522,-0.0952308323329581,0.5535467987136136,1.1291089296237626,-0.0897895763046401,0.0036183684654129,6.6345574369190059,5.8035482730555632,8.3781291073391291,0.9861761689348083
6.7157518244253360,-0.1041976766079522,0.5517229435933383,1.1148109148435423,-0.0904982336005407,0.0663375129463734,6.7360898205997630,5.9461355599324204,6.1545358596203057,1.0031951579059799
6.8153186009820628,-0.1133027145505719,0.5500237775569942,1.1013389186989009,-0.1030548295051448,0.1221401768203577,6.8260333659328332,6.0487367638174483,4.0312309149032135,1.0198659851178564
6.9146430127886420,-0.1247672440349639,0.5504535284525321,1.1019702025198510,-0.1149221274053358,0.0597118380739855,6.9326794933956011,6.1150087957163342,6.2671753804326586,1.0363056367522696
7.0139672966563484,-0.1362328812227904,0.5510021361447452,1.1021507314790928,-0.1149952707857738,0.0018596592321093,7.0421592638633594,6.2166361856752941,8.4281305577435930,1.0525214570843862
7.1132900302912887,-0.1477119404309348,0.5529909292605759,1.0968694728114039,-0.1152939992582080,0.0228330548849475,7.1411356489844851,6.3507416638898642,7.5790990642977318,1.0684331088196997
7.2126072609578848,-0.1592368960987535,0.5549738817624613,1.0921952760605160,-0.1195611408987487,0.0418241524061298,7.2281599099706071,6.4689637625632495,6.7497641100290853,1.0840315457408221
7.3118284133234903,-0.1715631745420915,0.5568548608875209,1.0981199913724480,-0.1236574726713757,0.0240847771692031,7.3340856051549279,6.5724597551494170,7.4596044077643251,1.0993648212300187
7.4110480690528320,-0.1839014297767361,0.5583193034382418,1.1030250708605962,-0.1243773191555682,0.0080473425102078,7.4489170086163607,6.6849762412290747,8.1403730561814971,1.1144482599660654
7.5102513725402718,-0.1963705433859833,0.5552326690198165,1.0967896133577146,-0.1252666814986179,0.0253838515688968,7.5469124138640309,6.8056387903770741,7.3243032709861389,1.1292709896266395
7.6094487524038987,-0.2088852417376944,0.5522763654344841,1.0909322820512790,-0.1294532659584893,0.0413268614879959,7.6326352507841033,6.9124048673228398,6.5253471367247444,1.1438479497818395
7.7085441736686828,-0.2221845538017199,0.5515633422376064,1.0915833345303065,-0.1335307130572405,0.0271626336646228,7.7382955327696266,7.0061544349677520,7.1666895323183271,1.1582149352740423
7.8076363508603315,-0.2355077921836353,0.5509877194408173,1.0918932233175365,-0.1348849156041674,0.0140349920254116,7.8544359020324510,7.1076934546803692,7.7909619397121714,1.1723831253783750
7.9066953887951508,-0.2490754456450624,0.5518156861920293,1.0887180145966378,-0.1363372582694307,0.0266166872047246,7.9523323920732274,7.2164566993680248,7.1138761982964169,1.1863433071286242
8.0057483193630077,-0.2626864413795665,0.5525623006772035,1.0860758582189898,-0.1402073901255172,0.0387935563727841,8.0375211690357613,7.3143551160010762,6.4245528511044894,1.2001049208964454
8.1046993738373843,-0.2770204232209955,0.5519518899318935,1.0923254698791676,-0.1440947118472764,0.0320414780940880,8.1433430182825575,7.4016548199942456,6.7446238332211612,1.2136933691536904
8.2036435425861836,-0.2914011091393240,0.5513372891039819,1.0978931924910633,-0.1466146486177673,0.0249033468707354,8.2608844152869327,7.4922092737807287,-3.0688677422545028,1.2271195373175026
8.3025210992590441,-0.3062336073586547,0.5506821536806508,1.0968643633587614,-0.1490745751436706,0.0272303746490182,8.3598538472331541,7.4511425470643777,-6.8611658896144432,1.2405012566242399
8.4013933287348337,-0.3211009096275851,0.5500782838537742,1.0963097763010619,-0.1520598423905815,0.0302661002455636,8.4453474294587565,7.3584994924370148,-6.8605447292269197,1.2540037802649515
8.5001805656842890,-0.3365234915422177,0.5502923286823211,1.1033214631163124,-0.1551268158017129,0.0291199229021984,8.5520235616450737,7.2646835552888716,-6.9620209530456938,1.2676784869902751
8.5989597108861702,-0.3519969829974599,0.5505500507990275,1.1093975685890167,-0.1578828837995938,0.0260650222027493,8.6684504160253404,7.1682249796482846,-7.1560931639462195,1.2815334547203547
8.6976604361995982,-0.3679638561924469,0.5512310644277257,1.1064066358419615,-0.1603389760166694,0.0092509252089881,8.7673515298310143,7.0677055389085508,-8.0374886689328857,1.2955801472992288
8.7963625037004842,-0.3839224005050693,0.5519423766969968,1.1038428666925326,-0.1597327703585332,-0.0050400595170691,8.8610543064860554,6.9530729336225310,-8.1640540847742127,1.3098423889032644
8.8950825148843364,-0.3997695961207460,0.5530587510141324,1.1069898409413961,-0.1593311267317328,0.0071917506248942,8.9647648810774001,6.8346672032534226,-7.6635000082696250,1.3243456894864798
8.9937973207585227,-0.4156488412922958,0.5539892314277436,1.1094214924720223,-0.1611708880828417,0.0185147376580025,9.0764716702415473,6.7216236014939605,-7.6322196573592258,1.3390965998586959
9.0924583536953616,-0.4318591712351854,0.5529993532321646,1.1044635733159645,-0.1630334759615197,0.0198785866877074,9.1770058203851619,6.6071193516833944,-7.5158671297157333,1.3540993454492474
9.1911133050946319,-0.4481060327356038,0.5520197600908329,1.1002657778181046,-0.1651459627097502,0.0233477408201520,9.2796745131141520,6.4923875607870913,-6.4034831862807611,1.3693646220854834
9.2897049694777323,-0.4647330568587478,0.5511471975132654,1.1039781461085947,-0.1677022692508945,0.0512964452843503,9.3797472538259417,6.3930122932259632,-5.3425150881498169,1.3848835614924042
9.3882747611983941,-0.4814839520265606,0.5505171470184593,1.1077612364953484,-0.1754035512884182,0.0793292372585524,9.4732267387862148,6.3089052157115812,-4.5416744284995776,1.4006265357520258
9.4865986434845251,-0.4996275015471001,0.5526136054390323,1.1123394395370310,-0.1835654869367800,0.1017718860259672,9.5752648429703768,6.2365131805769680,-4.0481393157040149,1.4165660391828185
9.5848803705169292,-0.5179848621182187,0.5549283647751481,1.1157460586714718,-0.1957543991302881,0.1168939273961688,9.6769571002128547,6.1712736907201213,-3.9956332277570876,1.4326819593053699
9.6827327879721956,-0.5385196768284028,0.5594663030855124,1.1072212541439019,-0.2069402186330271,0.0605627138098841,9.7783281596329132,6.1061953146845438,-6.2181408328482863,1.4489693341283361
9.7805816188241934,-0.5590715041200288,0.5635169245421946,1.0991015958066870,-0.2078649872307710,0.0089208814141625,9.8792923802564623,6.0035151232898594,-8.1782352932970390,1.4654823392459204
9.8783958890341648,-0.5797872652769910,0.5628717427346877,1.0948859411762364,-0.2087241069944259,0.0054974623376240,9.9802464906660404,5.8657318904217846,-8.2208554947064805,1.4823298898392621
9.9762092758357479,-0.6005071927141881,0.5618894200678590,1.0914825597845654,-0.2089643023426628,0.0085201390887336,10.0715259968272353,5.7238889520189336,-6.0235132126596778,1.4995839260516959
10.0740135831006636,-0.6212699405441729,0.5574420150718146,1.0964275988479302,-0.2104278599408651,0.0784731503743094,10.1741116199565926,5.6176860372976165,-3.8395087503440211,1.5172153167321560
10.1717627418951153,-0.6422754150351240,0.5533236568732904,1.1010758603422877,-0.2246561472428095,0.1513606324377969,10.2698394471924015,5.5489317299470802,-1.5685967218397026,1.5351223751141367
