# x_m,y_m,w_tr_right_m,w_tr_left_m,psi,kappa,s,velocity,acceleration,time
-0.0253140900763235,0.0151401655011937,0.9087129946554168,0.7726257576488300,0.1959313846546435,0.0000416521344347,0.0000000000000000,8.0000000000000000,0.0000000000000000,0.0000000000000000
0.0727213741900475,0.0345980192114378,0.9119950778830755,0.7541377669005545,0.1959272216159416,0.0205636245696132,0.0788905565724352,8.0000000000000000,0.0000000000000000,0.0124934734992741
0.1707569971121288,0.0540550560055579,0.9152784269705256,0.7356540453002650,0.1918208071470919,0.0411066612430969,0.1780030157410454,8.0000000000000000,0.0000000000000000,0.0249869465718230
0.2689489573485713,0.0727071140651142,0.9198091381594332,0.7213770877029243,0.1877101820301232,0.0412590607892848,0.2852387549208547,8.0000000000000000,0.0000000000000000,0.0374804200710971
0.3671412231601481,0.0913575263474583,0.9243423791575976,0.7071086620306843,0.1835733037110072,0.0414114760864715,0.3842610223608514,8.0000000000000000,0.0000000000000000,0.0499738927065331
0.4654841433714396,0.1091965389111546,0.9301228646211626,0.6970466390079674,0.1794322114514713,0.0415077210243414,0.4750212944870961,8.0000000000000000,0.0000000000000000,0.0624673662058072
0.5638275024094432,0.1270330737164979,0.9358931269398901,0.6870248158784573,0.1752760943416576,0.0416048828030812,0.5738495969465179,8.0000000000000000,0.0000000000000000,0.0749608384017807
0.6623153055606688,0.1440540300755751,0.9382983409388563,0.6902351815953734,0.1711155798734094,0.0418394969409544,0.6828302280292178,8.0000000000000000,0.0000000000000000,0.0874543119010548
0.7608036728800066,0.1610716382073418,0.9407165844217176,0.6934495753083539,0.1669125645962588,0.0420727031814567,0.7818697544659098,8.0000000000000000,0.0000000000000000,0.0999477836236655
0.8594310733956962,0.1772641115344740,0.9463458048339655,0.6976566255638577,0.1627054332355560,0.0419480151785050,0.8738434823864020,8.0000000000000000,0.0000000000000000,0.1124412571229397
0.9580591399238180,0.1934524194319086,0.9519913668050519,0.7018686925303773,0.1585273426761626,0.0418216820304905,0.9724641100361839,8.0000000000000000,0.0000000000000000,0.1249347284302726
1.0568184027467704,0.2088201886779373,0.9608560157910865,0.7070689901454593,0.1543454647506333,0.0414744281655764,1.0842345737411176,8.0000000000000000,0.0000000000000000,0.1374282019295468
1.1555784103965985,0.2241830384214609,0.9696767434583349,0.7121664382658986,0.1502367888119385,0.0411312822776720,1.1824920937312153,8.0000000000000000,0.0000000000000000,0.1499216728889346
1.2544606198191406,0.2387387584190657,0.9712914166850676,0.7003896422138509,0.1461235042243474,0.0414567645041451,1.2748296196470805,8.0000000000000000,0.0000000000000000,0.1624151463882087
1.3533436636822387,0.2532886407608607,0.9729412579663201,0.6886669831734653,0.1419497660059073,0.0417800199833207,1.3723433657677999,8.0000000000000000,0.0000000000000000,0.1749086168326745
1.4523439301552952,0.2670184464111949,0.9795315244346121,0.6845495175285693,0.1377718640860148,0.0417489719809064,1.4840293998360314,8.0000000000000000,0.0000000000000000,0.1874020903319487
1.5513450932719468,0.2807415825551732,0.9861622593961687,0.6804943975300174,0.1336043323662677,0.0417139430253215,1.5802534568334807,8.0000000000000000,0.0000000000000000,0.1998955603538716
1.6504563582892411,0.2936457474488734,0.9977622575621535,0.6840949103791514,0.1294334325786537,0.0412532813534512,1.6693437420719619,8.0000000000000000,0.0000000000000000,0.2123890338531458
1.7495685491756694,0.3065425674633321,1.0092874974678310,0.6875008285352868,0.1253579851620295,0.0407958213502569,1.7695039413916613,8.0000000000000000,0.0000000000000000,0.2248825036153813
1.8487817011909142,0.3186384672699656,1.0126607447519493,0.6696872253301508,0.1212785295915693,0.0407443885784967,1.8574922602163009,8.0000000000000000,0.0000000000000000,0.2373759771146554
1.9479958130132198,0.3307262189448832,1.0160414912459101,0.6519428599202819,0.1172133634840402,0.0406941187061085,1.9577528207787922,8.0000000000000000,0.0000000000000000,0.2498694464869686
2.0473040285229174,0.3420150921043962,1.0201574931130830,0.6409868711617545,0.1131439566370163,0.0407546655918152,2.0564532208648942,8.0000000000000000,0.0000000000000000,0.2623629199862427
2.1466132298043301,0.3532949666493527,1.0242819575239059,0.6301080235783999,0.1090666876188635,0.0408150428283071,2.1550952160022327,8.0000000000000000,0.0000000000000000,0.2748563889231151
2.2460101980181544,0.3637736609779477,1.0291598737588981,0.6260973425363983,0.1049852116315781,0.0408545426738506,2.2609589278165445,8.0000000000000000,0.0000000000000000,0.2873498624223892
2.3454081633016455,0.3742425119693256,1.0340534241137858,0.6222052292861577,0.1009000469105570,0.0408929218999287,2.3589157618042376,8.0000000000000000,0.0000000000000000,0.2998433309307100
2.4448874273637373,0.3839087597727305,1.0402217448227562,0.6279808624069076,0.0968108990873011,0.0408379596328295,2.4736455197396037,8.0000000000000000,0.0000000000000000,0.3123368044299842
2.5443676819528251,0.3935643633212938,1.0463490572152212,0.6336252543333110,0.0927367212028645,0.0407838402391033,2.5697240994007808,8.0000000000000000,0.0000000000000000,0.3248302725564923
2.6439224066743572,0.4024197069369924,1.0493932686201486,0.6294026268261266,0.0886583916046635,0.0407974542253100,2.6583549125658474,8.0000000000000000,0.0000000000000000,0.3373237460557664
2.7434781053179433,0.4112635712837336,1.0523928320265203,0.6250369317022422,0.0845814924807162,0.0408136198852810,2.7572034089572730,8.0000000000000000,0.0000000000000000,0.3498172137670572
2.8431017245084407,0.4193068805727552,1.0522786796385113,0.6106938151441730,0.0804999314393526,0.0409970544510322,2.8558756613320928,8.0000000000000000,0.0000000000000000,0.3623106872663313
2.9427262947712509,0.4273377734407016,1.0522053247474967,0.5964020225011814,0.0763863647356802,0.0411854730894361,2.9544442366466148,8.0000000000000000,0.0000000000000000,0.3748041544594199
3.0424127150494269,0.4345612031700631,1.0547851075657741,0.5854479202684586,0.0722671396515715,0.0416518755837304,3.0529652881739779,8.0000000000000000,0.0000000000000000,0.3872976279586940
3.1421000600875932,0.4417710801054551,1.0573852688507686,0.5745452525588641,0.0680603414166723,0.0421095295089135,3.1513929872107203,8.0000000000000000,0.0000000000000000,0.3997910944300779
3.2418437263459761,0.4481555429856479,1.0612265522902984,0.5667751328985824,0.0638496333633165,0.0420123364506200,3.2497271676060904,8.0000000000000000,0.0000000000000000,0.4122845679293520
3.3415882502550431,0.4545256651478823,1.0650896269791970,0.5590601798100421,0.0596622637072164,0.0419061702787310,3.3480047640266086,8.0000000000000000,0.0000000000000000,0.4247780340380627
3.4413818862836041,0.4600745869468726,1.0702005458798738,0.5545042602429817,0.0554727777956638,0.0413251376500363,3.4455780563479661,8.0000000000000000,0.0000000000000000,0.4372715075373369
3.5411762832922080,0.4656087384732828,1.0752818963418631,0.5502848423028464,0.0514015539569392,0.0407548203922827,3.5435980313695938,8.0000000000000000,0.0000000000000000,0.4497649736468105
3.6410117925020029,0.4703449210872899,1.0787658020219020,0.5642450372170807,0.0473260719084052,0.0407959091062862,3.6461137134557826,8.0000000000000000,0.0000000000000000,0.4622584471460847
3.7408479791680920,0.4750654768303919,1.0822425680933669,0.5781345854752906,0.0432466347613643,0.0408380365060721,3.7444403476836285,8.0000000000000000,0.0000000000000000,0.4747519128222829
3.8407188069895311,0.4789869657303563,1.0853542563115077,0.5884116766555244,0.0391627316346217,0.0409238839980782,3.8614375134807482,8.0000000000000000,0.0000000000000000,0.4872453863215570
3.9405902158704333,0.4828919300464043,1.0884584304147682,0.5986119821866392,0.0350661341139435,0.0410072496009135,3.9582929867112124,8.0000000000000000,0.0000000000000000,0.4997388515247679
4.0404898207794409,0.4859950355805878,1.0911979805713508,0.6050862485400849,0.0309655665775375,0.0409681210884750,4.0594014361544168,8.0000000000000000,0.0000000000000000,0.5122323250240420
4.1403898928802425,0.4890808184790282,1.0939220427126555,0.6114119458586278,0.0268767907930092,0.0409285255257718,4.1571417211877817,8.0000000000000000,0.0000000000000000,0.5247257898543554
4.2403115330634300,0.4913668954754504,1.0959310948859604,0.6108788985939981,0.0227841382316702,0.0408731800445579,4.2551235528561389,8.0000000000000000,0.0000000000000000,0.5372192633536294
4.3402335135359982,0.4936348712127023,1.0979274381620365,0.6103429981024867,0.0187064258759497,0.0408186302099596,4.3532835654958841,8.0000000000000000,0.0000000000000000,0.5497127278297972
4.4401704745137121,0.4951059780990316,1.0993642996785420,0.6096814904581650,0.0146246775812802,0.0408013365851449,4.4514497741621541,8.0000000000000000,0.0000000000000000,0.5622062013290713
4.5401076368045263,0.4965581742384982,1.1007877127363708,0.6090176157729114,0.0105504222689623,0.0407848012291902,4.5496543977783812,8.0000000000000000,0.0000000000000000,0.5746996654205773
4.6400532671775911,0.4972149042156956,1.1016454266237927,0.6082541733138531,0.0064719793175509,0.0408009562556011,4.6478732521490125,8.0000000000000000,0.0000000000000000,0.5871931389198515
4.7399989467920030,0.4978518847255542,1.1024736078192998,0.6075180501316109,0.0023944948233861,0.0408164149483620,4.7461111314028503,8.0000000000000000,0.0000000000000000,0.5996866025970087
4.8399466093691554,0.4976935487035892,1.1021124993136573,0.6078820818100802,-0.0016870382511041,0.0408027384627939,4.8443651029097623,8.0000000000000000,0.0000000000000000,0.6121800760962828
4.9398941556021949,0.4975146535421479,1.1017359980439012,0.6082607188458856,-0.0057617887515897,0.0407899045700827,4.9426355965900353,8.0000000000000000,0.0000000000000000,0.6246735393880684
5.0398372088753183,0.4965418085505408,1.1007650612692967,0.6092033834272027,-0.0098407563887521,0.0408096642720732,5.0409243021095405,8.0000000000000000,0.0000000000000000,0.6371670128873425
5.1397799665296180,0.4955475624728145,1.0997779497491473,0.6101613989355942,-0.0139194566281216,0.0408306230285202,5.1392362439844765,8.0000000000000000,0.0000000000000000,0.6496604757609873
5.2397117587647770,0.4937594837269761,1.0981908667443514,0.6116888279461624,-0.0180026138261944,0.0408950150363570,5.2376166607795120,8.0000000000000000,0.0000000000000000,0.6621539492602615
5.3396430609415457,0.4919491156124710,1.0965780223975057,0.6130059794115589,-0.0220941855850996,0.0409598387420468,5.3360682743482934,8.0000000000000000,0.0000000000000000,0.6746474116678161
5.4395568753549801,0.4893433500263445,1.0940458829984656,0.6068193639345717,-0.0261903007494069,0.0410315656438365,5.4358885795982008,8.0000000000000000,0.0000000000000000,0.6871408851670902
5.5394699895841502,0.4867143913107078,1.0915075810814556,0.6005399416774225,-0.0302962102345370,0.0411008734963524,5.5344253125714742,8.0000000000000000,0.0000000000000000,0.6996343470940465
5.6393590374021443,0.4832882490272281,1.0887574639344162,0.5910706075070767,-0.0344061797255271,0.0410863722509720,5.6357794445454195,8.0000000000000000,0.0000000000000000,0.7121278205933206
5.7392471634937205,0.4798381083986367,1.0860009696817683,0.5815042134840046,-0.0385091903509069,0.0410750177148438,5.7341698944114423,8.0000000000000000,0.0000000000000000,0.7246212821360409
5.8391047334628636,0.4755923994131123,1.0830330682088674,0.5687201914454151,-0.0426168901214437,0.0411684036288633,5.8348788594880689,8.0000000000000000,0.0000000000000000,0.7371147556353150
5.9389611406461240,0.4713217633608792,1.0800717155494279,0.5563974533211064,-0.0467385680007837,0.0412859057386938,5.9323145189897444,8.0000000000000000,0.0000000000000000,0.7496082166673907
6.0387803193556495,0.4662530468874653,1.0773200337616819,0.5588434669674580,-0.0508697559115254,0.0421404311961746,6.0210603184181775,8.0000000000000000,0.0000000000000000,0.7621016901666648
6.1385980209794360,0.4611575150240405,1.0746253549374174,0.5614018190320342,-0.0551622490612822,0.0429721586287307,6.1197558718638962,8.0000000000000000,0.0000000000000000,0.7745951497070769
6.2383700069769699,0.4552320500599825,1.0736949109875118,0.5674370316501494,-0.0594596955133404,0.0430689342251010,6.2192496039596206,8.0000000000000000,0.0000000000000000,0.7870886232063512
6.3381402221938057,0.4492787943014257,1.0728247400863657,0.5735881461521497,-0.0637715334711193,0.0431393053897119,6.3177746411707885,8.0000000000000000,0.0000000000000000,0.7995820821815388
6.4378573996813335,0.4424931595593317,1.0737598439161413,0.5832107084496589,-0.0680830467994837,0.0424378947818073,6.4176811687564346,8.0000000000000000,0.0000000000000000,0.8120755556808130
6.5375725752972178,0.4356798137853081,1.0746910536273848,0.5923996206061761,-0.0722546761375424,0.0417585802380816,6.5164721516442414,8.0000000000000000,0.0000000000000000,0.8245690151751488
6.6372296685367473,0.4280624591276995,1.0755092792425667,0.5890065918731474,-0.0764303975700216,0.0417432957267151,6.6250736438469975,8.0000000000000000,0.0000000000000000,0.8370624886744229
6.7368844630445768,0.4204165948146724,1.0763549392761478,0.5855771155850106,-0.0805989714742736,0.0417304233594103,6.7222944391356245,8.0000000000000000,0.0000000000000000,0.8495559477815235
6.8364745865844601,0.4119686590761019,1.0779724207418511,0.5811222483528613,-0.0847721197789582,0.0417825262657385,6.8387997942203622,8.0000000000000000,0.0000000000000000,0.8620494212807978
6.9360620923082497,0.4034913221005064,1.0796189589735787,0.5766319230476185,-0.0889511086565249,0.0418302020117433,6.9274910445623847,8.0000000000000000,0.0000000000000000,0.8745428799057665
7.0355781306041445,0.3942113195777608,1.0820587585561603,0.5711735781445499,-0.0931337871262445,0.0417567665221560,7.0128885357930395,8.0000000000000000,0.0000000000000000,0.8870363534050406
7.1350912342416386,0.3849012036329939,1.0844946391369346,0.5658549412310905,-0.0972980964819539,0.0416824738889537,7.1143053230852633,8.0000000000000000,0.0000000000000000,0.8995298117273435
7.2345265323902455,0.3747927019126570,1.0868266167041307,0.5642403294383161,-0.1014659241919882,0.0415924403423984,7.2330275815728715,8.0000000000000000,0.0000000000000000,0.9120232852266178
7.3339585715856979,0.3646534117938716,1.0891206340794222,0.5626153921487478,-0.1056122361611385,0.0415053952106369,7.3240947944316543,8.0000000000000000,0.0000000000000000,0.9245167432789089
7.4333066258033558,0.3537206880665719,1.0904363968666113,0.5607243612462003,-0.1097626639451790,0.0414965967243432,7.4041360663252389,8.0000000000000000,0.0000000000000000,0.9370102167781830
7.5326510724207720,0.3427563855778903,1.0917120130523783,0.5588212995788079,-0.1139072170082460,0.0414910724451942,7.5067167458313833,8.0000000000000000,0.0000000000000000,0.9495036744428369
7.6319050921836107,0.3310005408251642,1.0919813284716573,0.5566166789386515,-0.1180565405140239,0.0415652722448809,7.6253709595406409,8.0000000000000000,0.0000000000000000,0.9619971479421110
7.7311551260177627,0.3192122008091682,1.0922541717442849,0.5544400328652214,-0.1222159256075566,0.0416392749202485,7.7177118948134265,8.0000000000000000,0.0000000000000000,0.9744906050900126
7.8303079185407318,0.3066311014999083,1.0926130810538008,0.5529458584973767,-0.1263800419110714,0.0417059875186758,7.7979060824970885,8.0000000000000000,0.0000000000000000,0.9869840785892869
7.9294563314185611,0.2940166024580881,1.0929618417351712,0.5514972653419408,-0.1305527623793032,0.0417764792945429,7.9003884909662760,8.0000000000000000,0.0000000000000000,0.9994775352280818
8.0285006776178669,0.2806084776494466,1.0930694563900059,0.5511317474651841,-0.1347309696674492,0.0419309082518496,8.0183583461991184,8.0000000000000000,0.0000000000000000,1.0119710087273559
8.1275402127018115,0.2671659035888074,1.0931662941920033,0.5508142567699134,-0.1389345595588676,0.0420884660026613,8.1111216186401602,8.0000000000000000,0.0000000000000000,1.0244644647062746
8.2264683355572981,0.2529255793922899,1.0930135696576142,0.5516089437950461,-0.1431442619222798,0.0423093682421330,8.1968502832325303,8.0000000000000000,0.0000000000000000,1.0369579382055487
8.3253911769328042,0.2386496380125821,1.0928582007442966,0.5524958723796781,-0.1473920088966680,0.0425262352669426,8.2908717077336735,8.0000000000000000,0.0000000000000000,1.0494513933972183
8.4241947527804726,0.2235693951549060,1.0926431168931348,0.5554657849622064,-0.1516450619871550,0.0426437130686605,8.4088884737814986,8.0000000000000000,0.0000000000000000,1.0619448668964926
8.5229925792149022,0.2084525323247205,1.0924261023850523,0.5584249323105513,-0.1559162920242556,0.0427643667408457,8.5010798528897489,8.0000000000000000,0.0000000000000000,1.0744383214640316
8.6216637293542995,0.1925288249956837,1.0921665498899515,0.5611468902405364,-0.1601934632317656,0.0429478693370080,8.5966106542219425,8.0000000000000000,0.0000000000000000,1.0869317949633059
8.7203286216542590,0.1765673754570055,1.0919049758749606,0.5638565878746415,-0.1645013743391059,0.0431337903830171,8.6824166023149836,8.0000000000000000,0.0000000000000000,1.0994252487766651
8.8188589154984420,0.1597941372511255,1.0915999214449932,0.5663025815723211,-0.1688157103119161,0.0433634916753126,8.7834948283535894,8.0000000000000000,0.0000000000000000,1.1119187222759392
8.9173824035507732,0.1429819459633634,1.0912229761992882,0.5686835721998803,-0.1731695373580049,0.0435852125671572,8.8908178539942782,8.0000000000000000,0.0000000000000000,1.1244121752325720
9.0157629083911495,0.1253513874842721,1.0893356733101138,0.5696989101665539,-0.1775281943197611,0.0436312166097542,8.9863155129987344,8.0000000000000000,0.0000000000000000,1.1369056487318461
9.1141360934415037,0.1076809857240700,1.0874480176632046,0.5707776978973285,-0.1818912171798459,0.0436974013148239,9.0717904457460659,8.0000000000000000,0.0000000000000000,1.1493991011640943
9.2123590097983179,0.0891926373041932,1.0855531202178610,0.5731590521124995,-0.1862631041601892,0.0441679354710539,9.1705610712333776,8.0000000000000000,0.0000000000000000,1.1618925746633686
9.3105739194248009,0.0706627703981196,1.0836585610411464,0.5756083583461067,-0.1907201841521957,0.0446529860488972,9.2662719816285417,8.0000000000000000,0.0000000000000000,1.1743860257231333
9.4086281275425918,0.0512995941265177,1.0817707911875212,0.5794215161686340,-0.1951890305101061,0.0454044553939683,9.3654054373233091,8.0000000000000000,0.0000000000000000,1.1868794992224074
9.5066734863038409,0.0318926666744289,1.0799950410316579,0.5830213209778378,-0.1997963250304930,0.0461166552896775,9.4746804586817674,8.0000000000000000,0.0000000000000000,1.1993729482606488
9.6045451106216966,0.0116267968851340,1.0804185106440003,0.5824324859863508,-0.2044075368574059,0.0460409526861434,9.5712308923440581,8.0000000000000000,0.0000000000000000,1.2118664217599229
9.7024073208071986,-0.0086835086420922,1.0807867074751996,0.5818606575180079,-0.2089996986585092,0.0459655514202155,9.6681195636204880,8.0000000000000000,0.0000000000000000,1.2243598704762755
9.8000886918334924,-0.0298473948484522,1.0800931513061742,0.5816155129363475,-0.2135958381208884,0.0459020408362331,9.7655491654600617,8.0000000000000000,0.0000000000000000,1.2368533439755496
9.8977600692644074,-0.0510564066718052,1.0793396897364593,0.5813907021634478,-0.2181753043255352,0.0458589207249111,9.8635230566847092,8.0000000000000000,0.0000000000000000,1.2493467923534591
9.9952435075773796,-0.0731140488761072,1.0774596498195457,0.5815482881094116,-0.2227628242770909,0.0461927165724648,9.9614143637548036,8.0000000000000000,0.0000000000000000,1.2618402658527332
10.0927161734074371,-0.0952182929473119,1.0755884214191331,0.5817755987696447,-0.2274090142745222,0.0465604595290195,10.0774581060449471,8.0000000000000000,0.0000000000000000,1.2743337130038761
10.1899904381664506,-0.1181808220006528,1.0738794781970933,0.5832870570213453,-0.2320700443386794,0.0475269103276375,10.1725326172934292,8.0000000000000000,0.0000000000000000,1.2868271865031502
