# x_m,y_m,w_tr_right_m,w_tr_left_m,psi,kappa,s,velocity,acceleration,time
0.0024723593270696,-0.0865537517923651,0.8974398176474397,0.9707143515795008,0.1369232779291625,0.0127021183491644,0.0000000000000000,8.0000000000000000,0.0000000000000000,0.0000000000000000
0.0524346336973855,-0.0796696787156187,0.8924219902039178,0.9523933753307672,0.1362826553928143,0.0190668336644130,0.0504343069981210,8.0000000000000000,0.0000000000000000,0.0063042883747651
0.1024304462139571,-0.0728462299249644,0.8895182178745876,0.9358966254699372,0.1349995563509179,0.0254653816004444,0.1008936046804199,8.0000000000000000,0.0000000000000000,0.0126117005850525
0.1524593711300383,-0.0660837491056796,0.8892521146349398,0.9219691141243755,0.1337120982641964,0.0255396438208463,0.1513775078089428,8.0000000000000000,0.0000000000000000,0.0189221884761178
0.2025209826988845,-0.0593825799430409,0.8910887139010061,0.9128893456015886,0.1324202559414682,0.0256145284683916,0.2018856321159920,8.0000000000000000,0.0000000000000000,0.0252357040144990
0.2526148551737530,-0.0527430661223253,0.8715178454354909,0.9683310995258182,0.1311240040920341,0.0256900378377698,0.2524175943112588,8.0000000000000000,0.0000000000000000,0.0315521992889073
0.3027405628078965,-0.0461655513288101,0.8868072388689952,0.9798686452414982,0.1298233173250405,0.0257661742508152,0.3029730120890057,8.0000000000000000,0.0000000000000000,0.0378716265111257
0.3528976798545740,-0.0396503792477716,0.8822158129200925,0.9617439573618140,0.1285181701488409,0.0258429400563011,0.3535515041353257,8.0000000000000000,0.0000000000000000,0.0441939380169157
0.4030857805670384,-0.0331978935644873,0.8792100200864876,0.9464543765038977,0.1272085369703708,0.0259203376296278,0.4041526901354331,8.0000000000000000,0.0000000000000000,0.0505190862669291
0.4533044391985463,-0.0268084379642339,0.8782192909269063,0.9320082732918148,0.1258943920945308,0.0259983693725766,0.4547761907810378,8.0000000000000000,0.0000000000000000,0.0568470238476297
0.5035532300023529,-0.0204823561322883,0.8807949774793212,0.9218632322432920,0.1245757097235771,0.0260770377130645,0.5054216277777621,8.0000000000000000,0.0000000000000000,0.0631777034722203
0.5538317272317140,-0.0142199917539275,0.8857249146588267,0.9142750853411733,0.1232524639565207,0.0261563451048455,0.5560886238526257,8.0000000000000000,0.0000000000000000,0.0695110779815782
0.6041395051398842,-0.0080216885144287,0.8910502393900326,0.9123823054634054,0.1219246287885383,0.0262362940272424,0.6067768027615840,8.0000000000000000,0.0000000000000000,0.0758471003451980
0.6544761379801207,-0.0018877900990684,0.8825211947457886,0.9819946196858741,0.1205921781103896,0.0263168869849372,0.6574857892971354,8.0000000000000000,0.0000000000000000,0.0821857236621419
0.7048412000056776,0.0041813598068762,0.8759088559268088,0.9681017931784283,0.1192550857078405,0.0263981265076449,0.7082152092959785,8.0000000000000000,0.0000000000000000,0.0885269011619973
0.7552342654698111,0.0101854175181282,0.8721535778188125,0.9519608496208530,0.1179133252611040,0.0264800151498087,0.7589646896467416,8.0000000000000000,0.0000000000000000,0.0948705862058427
0.8056549086257766,0.0161240393494105,0.8712732170021177,0.9393713760913301,0.1165668703442850,0.0265625554903908,0.8097338582977663,8.0000000000000000,0.0000000000000000,0.1012167322872208
0.8561027037268290,0.0219968816154465,0.8723366174307106,0.9307967614197508,0.1152156944248337,0.0266457501325851,0.8605223442649568,8.0000000000000000,0.0000000000000000,0.1075652930331196
0.9065772250262242,0.0278036006309589,0.8774741819499867,0.9225258180500133,0.1138597708630098,0.0267296017034667,0.9113297776396926,8.0000000000000000,0.0000000000000000,0.1139162222049616
0.9570780467772182,0.0335438527106711,0.8834997830945580,0.9165002169054420,0.1124990729113624,0.0268141128537412,0.9621557895968028,8.0000000000000000,0.0000000000000000,0.1202694736996004
1.0076047432330661,0.0392172941693058,0.8890874699911657,0.9109125300088343,0.1111335737142107,0.0268992862574692,1.0130000124026040,8.0000000000000000,0.0000000000000000,0.1266250015503255
1.0581568886470232,0.0448235813215863,0.8948180765850501,0.9051819234149500,0.1097632463071423,0.0269851246117390,1.0638620794230043,8.0000000000000000,0.0000000000000000,0.1329827599278755
1.1087340572723456,0.0503623704822356,0.9003554285568774,0.8996445714431226,0.1083880636165175,0.0270716306363963,1.1147416251316722,8.0000000000000000,0.0000000000000000,0.1393427031414590
1.1593358233622879,0.0558333179659767,0.9031464366011029,0.9080699492220686,0.1070079984589862,0.0271588070737070,1.1656382851182674,8.0000000000000000,0.0000000000000000,0.1457047856397834
1.2099617611701075,0.0612360800875328,0.8938568503147888,0.9722542186335460,0.1056230235410167,0.0272466566880629,1.2165516960967446,8.0000000000000000,0.0000000000000000,0.1520689620120931
1.2606114449490575,0.0665703131616267,0.8870814940202073,0.9554772027565271,0.1042331114584327,0.0273351822656459,1.2674814959137122,8.0000000000000000,0.0000000000000000,0.1584351869892140
1.3112844489523947,0.0718356735029816,0.8828665313059010,0.9392973879984164,0.1028382346959671,0.0274243866141350,1.3184273235568720,8.0000000000000000,0.0000000000000000,0.1648034154446090
1.3619803474333745,0.0770318174263207,0.8812178665485645,0.9278062466348078,0.1014383656268185,0.0275142725624029,1.3693888191635146,8.0000000000000000,0.0000000000000000,0.1711736023954393
1.4126987146452523,0.0821584012463668,0.8822572864940484,0.9196072173708061,0.1000334765122264,0.0276048429600943,1.4203656240290889,8.0000000000000000,0.0000000000000000,0.1775457030036361
1.4634391248412839,0.0872150812778431,0.8869185605538095,0.9130814394461906,0.0986235395010604,0.0276961006773648,1.4713573806158382,8.0000000000000000,0.0000000000000000,0.1839196725769798
1.5142011522747247,0.0922015138354726,0.8917165329821176,0.9082834670178824,0.0972085266294118,0.0277880486045404,1.5223637325615047,8.0000000000000000,0.0000000000000000,0.1902954665701881
1.5649843711988300,0.0971173552339784,0.8928296716867405,0.9243425401767112,0.0957884098202075,0.0278806896517165,1.5733843246881047,8.0000000000000000,0.0000000000000000,0.1966730405860131
1.6157883558668551,0.1019622617880835,0.8891417621882352,0.9856465579749124,0.0943631608828317,0.0279740267484723,1.6244188030107733,8.0000000000000000,0.0000000000000000,0.2030523503763467
1.6666126805320560,0.1067358898125111,0.9055551213752908,0.9924890579397493,0.0929327515127583,0.0280680628434463,1.6754668147466809,8.0000000000000000,0.0000000000000000,0.2094333518433351
1.7174569194476879,0.1114378956219840,0.9109917070697567,0.9890082929302434,0.0914971532912052,0.0281628009039531,1.7265280083240169,8.0000000000000000,0.0000000000000000,0.2158160010405021
1.7683206468670074,0.1160679355312255,0.9155678842160848,0.9844321157839153,0.0900563376847952,0.0282582439157081,1.7776020333910507,8.0000000000000000,0.0000000000000000,0.2222002541738813
1.8192034370432684,0.1206256658549585,0.9197134144943023,0.9802865855056978,0.0886102760452265,0.0283543948823754,1.8286885408252576,8.0000000000000000,0.0000000000000000,0.2285860676031572
1.8701048642297267,0.1251107429079061,0.9244524257625846,0.9745970803743320,0.0871589396089689,0.0284512568251319,1.8797871827425257,8.0000000000000000,0.0000000000000000,0.2349733978428157
1.9210245026796382,0.1295228230047913,0.9219344324406147,0.9629323304260755,0.0857022994969672,0.0285488327823811,1.9308976125064303,8.0000000000000000,0.0000000000000000,0.2413622015633038
1.9719619266462591,0.1338615624603375,0.9127908302911544,0.9451955004058366,0.0842403267143541,0.0286471258092768,1.9820194847375840,8.0000000000000000,0.0000000000000000,0.2477524355921980
2.0229167103828445,0.1381266175892672,0.9058503474887376,0.9297584048173267,0.0827729921501914,0.0287461389772800,2.0331524553230587,8.0000000000000000,0.0000000000000000,0.2541440569153823
2.0738884281426486,0.1423176447063038,0.9014167072668989,0.9171361214174236,0.0813002665772151,0.0288458753738310,2.0842961814258847,8.0000000000000000,0.0000000000000000,0.2605370226782356
2.1248766541789292,0.1464343001261704,0.8997734057798206,0.9073240670855526,0.0798221206515974,0.0289463381018393,2.1354503214946297,8.0000000000000000,0.0000000000000000,0.2669312901868287
2.1758809627449391,0.1504762401635898,0.9011973914191170,0.9001074666767496,0.0783385249127317,0.0290475302792690,2.1866145352730397,8.0000000000000000,0.0000000000000000,0.2733268169091300
2.2269009280939369,0.1544431211332853,0.8840074012271181,0.9295369746335930,0.0768494497830234,0.0291494550387066,2.2377884838097772,8.0000000000000000,0.0000000000000000,0.2797235604762222
2.2779361244791758,0.1583345993499798,0.8758462715142653,0.9592446444857418,0.0753548655677059,0.0292521155268799,2.2889718294682129,8.0000000000000000,0.0000000000000000,0.2861214786835266
2.3289861261539122,0.1621503311283964,0.8902835647657604,0.9662626217250986,0.0738547424546667,0.0293555149042025,2.3401642359363151,8.0000000000000000,0.0000000000000000,0.2925205294920394
2.3800505073714011,0.1658899727832581,0.9059913816551272,0.9758329918864306,0.0723490505142963,0.0294596563442610,2.3913653682366052,8.0000000000000000,0.0000000000000000,0.2989206710295756
2.4311288423848989,0.1695531806292881,0.9182104121400427,0.9805307182144554,0.0708377596993521,0.0295645430334201,2.4425748927361974,8.0000000000000000,0.0000000000000000,0.3053218615920247
2.4822207054476597,0.1731396109812094,0.9231151889984640,0.9768848110015361,0.0693208398448331,0.0296701781702488,2.4937924771569127,8.0000000000000000,0.0000000000000000,0.3117240596446141
2.5333256708129408,0.1766489201537450,0.9262276797229064,0.9737723202770937,0.0677982606678873,0.0297765649649735,2.5450177905854807,8.0000000000000000,0.0000000000000000,0.3181272238231851
2.5844433127339972,0.1800807644616181,0.9297488740726203,0.9702511259273798,0.0662699917677272,0.0298837066390598,2.5962505034838119,8.0000000000000000,0.0000000000000000,0.3245313129354765
2.6355732054640830,0.1834348002195514,0.9333859153598376,0.9666140846401625,0.0647360026255643,0.0299916064246291,2.6474902876993567,8.0000000000000000,0.0000000000000000,0.3309362859624196
2.6867149232564551,0.1867106837422683,0.9366536767517213,0.9633463232482788,0.0631962626045677,0.0301002675639229,2.6987368164755483,8.0000000000000000,0.0000000000000000,0.3373421020594435
2.7378680403643689,0.1899080713444918,0.9398849254543857,0.9601150745456144,0.0616507409498370,0.0302096933087703,2.7499897644623208,8.0000000000000000,0.0000000000000000,0.3437487205577901
2.7890321310410795,0.1930266193409449,0.9419754592867053,0.9559954699237804,0.0600994067883986,0.0303198869199787,2.8012488077267133,8.0000000000000000,0.0000000000000000,0.3501561009658392
2.8402067695398432,0.1960659840463507,0.9331156175755447,0.9410666232918251,0.0585422291292237,0.0304308516667527,2.8525136237635587,8.0000000000000000,0.0000000000000000,0.3565642029704448
2.8913915301139128,0.1990258217754320,0.9229751713056239,0.9250456657719835,0.0569791768632655,0.0305425908261656,2.9037838915062508,8.0000000000000000,0.0000000000000000,0.3629729864382814
2.9425859870165487,0.2019057888429122,0.9156793130688331,0.9118398953681240,0.0554102187635135,0.0306551076825498,2.9550592913376086,8.0000000000000000,0.0000000000000000,0.3693824114172011
2.9937897145010020,0.2047055415635143,0.9111071440174520,0.9016941519078696,0.0538353234850746,0.0307684055268212,3.0063395051008008,8.0000000000000000,0.0000000000000000,0.3757924381376001
3.0450022868205315,0.2074247362519613,0.9092327628782495,0.8943889546222645,0.0522544595652767,0.0308824876558758,3.0576242161103866,8.0000000000000000,0.0000000000000000,0.3822030270137983
3.0962232782283889,0.2100630292229761,0.9101928461942582,0.8899596042860940,0.0506675954237923,0.0309973573719671,3.1089131091634123,8.0000000000000000,0.0000000000000000,0.3886141386454265
3.1474522629778336,0.2126200767912819,0.9126627910862462,0.8873372089137539,0.0490746993627851,0.0311130179820365,3.1602058705506240,8.0000000000000000,0.0000000000000000,0.3950257338188280
3.1986888153221180,0.2150955352716018,0.9150983127300585,0.8849016872699416,0.0474757395670815,0.0312294727970446,3.2115021880677359,8.0000000000000000,0.0000000000000000,0.4014377735084670
3.2499325095144989,0.2174890609786587,0.9175680165803518,0.8824319834196482,0.0458706841043650,0.0313467251312807,3.2628017510268155,8.0000000000000000,0.0000000000000000,0.4078502188783519
3.3011829198082343,0.2198003102271760,0.9198872135256331,0.8801127864743670,0.0442595009253954,0.0314647783016770,3.3141042502677394,8.0000000000000000,0.0000000000000000,0.4142630312834674
3.3524396204565754,0.2220289393318764,0.9220333654362097,0.8779666345637903,0.0426421578642520,0.0315836356270668,3.3654093781697334,8.0000000000000000,0.0000000000000000,0.4206761722712167
3.4037021857127803,0.2241746046074830,0.9242119693637958,0.8757880306362043,0.0410186226386049,0.0317033004274682,3.4167168286630254,8.0000000000000000,0.0000000000000000,0.4270896035828782
3.4549701898301031,0.2262369623687190,0.9262581015374238,0.8737418984625762,0.0393888628500083,0.0318237760233513,3.4680262972405616,8.0000000000000000,0.0000000000000000,0.4335032871550702
3.5062432070618010,0.2282156689303073,0.9284061902055076,0.8715938097944924,0.0377528459842229,0.0319450657348469,3.5193374809698312,8.0000000000000000,0.0000000000000000,0.4399171851212289
3.5575208116611283,0.2301103806069710,0.9301517231842781,0.8698482768157220,0.0361105394115646,0.0320671728809992,3.5706500785047703,8.0000000000000000,0.0000000000000000,0.4463312598130963
3.6088025778813417,0.2319207537134333,0.9319179208398958,0.8680820791601043,0.0344619103872785,0.0321901007789654,3.6219637900977668,8.0000000000000000,0.0000000000000000,0.4527454737622209
3.6600880799756954,0.2336464445644172,0.9336646011959906,0.8663353988040094,0.0328069260519432,0.0323138527431665,3.6732783176117478,8.0000000000000000,0.0000000000000000,0.4591597897014685
3.7113768921974448,0.2352871094746456,0.9353205981583357,0.8646794018416644,0.0311455534319049,0.0324384320844613,3.7245933645323688,8.0000000000000000,0.0000000000000000,0.4655741705665461
3.7626685887998468,0.2368424047588417,0.9368904394726700,0.8631095605273300,0.0294777594397386,0.0325638421093550,3.7759086359802905,8.0000000000000000,0.0000000000000000,0.4719885794975363
3.8139627440361545,0.2383119867317284,0.9384481572749391,0.8615518427250609,0.0278035108747352,0.0326900861191038,3.8272238387235467,8.0000000000000000,0.0000000000000000,0.4784029798404433
3.8652589321596267,0.2396955117080289,0.9397152376161375,0.8602847623838625,0.0261227744234251,0.0328171674088047,3.8785386811900171,8.0000000000000000,0.0000000000000000,0.4848173351487521
3.9165567274235165,0.2409926360024663,0.9409825238060195,0.8919681411591041,0.0244355166601293,0.0329450892665290,3.9298528734799789,8.0000000000000000,0.0000000000000000,0.4912316091849974
3.9678557040810798,0.2422030159297636,0.9421892766521491,0.9578107233478510,0.0227417040475408,0.0330738549723387,3.9811661273787684,8.0000000000000000,0.0000000000000000,0.4976457659223461
4.0191554363855726,0.2433263078046437,0.9433032989031898,0.9566967010968104,0.0210413029373451,0.0332034677974160,4.0324781563695300,8.0000000000000000,0.0000000000000000,0.5040597695461912
4.0704554985902508,0.2443621679418299,0.9443251361830636,0.9556748638169366,0.0193342795708589,0.0333339310031190,4.0837886756460646,8.0000000000000000,0.0000000000000000,0.5104735844557581
4.1217554649483708,0.2453102526560451,0.9448021960081611,0.9551978039918391,0.0176206000797143,0.0334652478398870,4.1350974021257736,8.0000000000000000,0.0000000000000000,0.5168871752657217
4.1730549097131835,0.2461702182620124,0.9455940372038183,0.9544059627961818,0.0159002304865765,0.0335974215463235,4.1864040544626926,8.0000000000000000,0.0000000000000000,0.5233005068078366
4.2243534071379498,0.2469417210744548,0.9468808398008478,0.9531191601991523,0.0141731367058862,0.0337304553481862,4.2377083530606496,8.0000000000000000,0.0000000000000000,0.5297135441325812
4.2756505314759234,0.2476244174080955,0.9475886747754049,0.9524113252245953,0.0124392845446457,0.0338643524573150,4.2890100200864829,8.0000000000000000,0.0000000000000000,0.5361262525108104
4.3269458569803581,0.2482179635776575,0.9480999516418241,0.9519000483581760,0.0106986397032358,0.0339991160705357,4.3403087794833857,8.0000000000000000,0.0000000000000000,0.5425385974354232
4.3782389579045109,0.2487220158978636,0.9486292570637983,0.9513707429362018,0.0089511677762757,0.0341347493685912,4.3916043569843444,8.0000000000000000,0.0000000000000000,0.5489505446230430
4.4295294085016383,0.2491362306834373,0.9491101806640589,0.9508898193359412,0.0071968342535114,0.0342712555151005,4.4428964801256701,8.0000000000000000,0.0000000000000000,0.5553620600157088
4.4808167830249932,0.2494602642491013,0.9493542843241491,0.9506457156758510,0.0054356045207438,0.0344086376553433,4.4941848782606337,8.0000000000000000,0.0000000000000000,0.5617731097825792
4.5321006557278345,0.2496937729095788,0.9494965302075157,0.9505034697924845,0.0036674438608009,0.0345468989151154,4.5454692825732099,8.0000000000000000,0.0000000000000000,0.5681836603216512
4.5833806008634141,0.2498364129795929,0.9497437988067140,0.9502562011932861,0.0018923174545424,0.0346860423995736,4.5967494260919022,8.0000000000000000,0.0000000000000000,0.5745936782614878
4.6346561926849903,0.2498878407738665,0.9497831366246374,0.9502168633753627,0.0001101903819083,0.0348260711920470,4.6480250437036963,8.0000000000000000,0.0000000000000000,0.5810031304629620
4.6859270054458158,0.2498477126071229,0.9497914122080370,0.9502085877919632,-0.0016789723769983,0.0349669883527771,4.6992958721680909,8.0000000000000000,0.0000000000000000,0.5874119840210114
4.7371926133991504,0.2497156847940849,0.9496916986277812,0.9503083013722189,-0.0034752059407774,0.0351087969176822,4.7505616501312549,8.0000000000000000,0.0000000000000000,0.5938202062664069
4.7884525907982463,0.2494914136494757,0.9494769101909157,0.9505230898090844,-0.0052785455255675,0.0352514998970789,4.8018221181402589,8.0000000000000000,0.0000000000000000,0.6002277647675324
4.8397065118963596,0.2491745554880183,0.9466424518627599,0.9533575481372403,-0.0070890264438273,0.0353951002743685,4.8530770186574399,8.0000000000000000,0.0000000000000000,0.6066346273321800
4.8909539509467459,0.2487647666244358,0.9480602545004012,0.9519397454995989,-0.0089066841030840,0.0355396010047517,4.9043260960748505,8.0000000000000000,0.0000000000000000,0.6130407620093563
4.9421944822026598,0.2482617033734510,0.9475151752312333,0.9524848247687668,-0.0107315540046320,0.0356850050138238,4.9555690967288202,8.0000000000000000,0.0000000000000000,0.6194461370911025
4.9934276799173603,0.2476650220497874,0.9474203144207051,0.9525796855792951,-0.0125636717421864,0.0358313151962583,5.0068057689146244,8.0000000000000000,0.0000000000000000,0.6258507211143280
5.0446531183440984,0.2469743789681678,0.9469511152308889,0.9530488847691112,-0.0144030730004974,0.0359785344143729,5.0580358629012423,8.0000000000000000,0.0000000000000000,0.6322544828626553
5.0958703717361331,0.2461894304433154,0.9460948846078343,0.9539051153921658,-0.0162497935539094,0.0361266654966070,5.1092591309462483,8.0000000000000000,0.0000000000000000,0.6386573913682810
5.1470790143467156,0.2453098327899529,0.9452988072833802,0.9547011927166199,-0.0181038692648723,0.0362757112361986,5.1604753273107793,8.0000000000000000,0.0000000000000000,0.6450594159138474
5.1982786204291083,0.2443352423228038,0.9443296114860683,0.9556703885139318,-0.0199653360824195,0.0364256743897285,5.2116842082746402,8.0000000000000000,0.0000000000000000,0.6514605260343300
5.2494687642365614,0.2432653153565910,0.9432588026521862,0.9567411973478139,-0.0218342300405849,0.0365765576753887,5.2628855321514774,8.0000000000000000,0.0000000000000000,0.6578606915189347
