# x_m,y_m,w_tr_right_m,w_tr_left_m,psi,kappa,s,velocity,acceleration,time
0.0016194262755955,0.3491786301252054,0.0320103900310657,0.2883744869917469,-0.0002927649784759,-0.0000000000000022,0.0000000000000000,8.0000000000000000,0.0000000000000000,0.0000000000000000
0.1015556178987334,0.3491493723073800,0.1319530070528789,0.2883331218649839,-0.0002927649784756,-0.0001350363219615,0.0999361959059701,8.0000000000000000,0.0000000000000000,0.0124920244882463
0.2014918095218713,0.3491201144895547,0.2318956240746921,0.2882917567382209,-0.0002657749458239,-0.0002700972907160,0.1998723918119402,8.0000000000000000,0.0000000000000000,0.0249840489764925
0.3014280025787221,0.3490962512339192,0.3318411135887848,0.2882501106261423,-0.0002387799869583,-0.0002652677926977,0.2998085877178838,8.0000000000000000,0.0000000000000000,0.0374760734647355
0.4013641956358346,0.3490723889628980,0.4317866036271640,0.2882084644627784,-0.0002127552376268,-0.0002604365314084,0.3997447836238539,8.0000000000000000,0.0000000000000000,0.0499680979529817
0.5013003897993620,0.3490537273360395,0.5317345456850736,0.2881671868903036,-0.0001867259145105,-0.0002555773249363,0.4996809795297746,8.0000000000000000,0.0000000000000000,0.0624601224412218
0.6012365839632933,0.3490350676079684,0.6316824886382306,0.2881259094524037,-0.0001616723863989,-0.0002507163389047,0.5996171754357447,8.0000000000000000,0.0000000000000000,0.0749521469294681
0.7011727789364248,0.3490214134896309,0.7316324587603728,0.2880856534842045,-0.0001366146401873,-0.0002460517338172,0.6995533713416461,8.0000000000000000,0.0000000000000000,0.0874441714177058
0.8011089739099997,0.3490077621131625,0.8315824299929154,0.2880453980755247,-0.0001124934378514,-0.0002413854967709,0.7994895672476162,8.0000000000000000,0.0000000000000000,0.0999361959059520
0.9010451694255304,0.3489989291571984,0.9315340198749920,0.2880067936600284,-0.0000883683435990,-0.0002365131695571,0.8994257631535015,8.0000000000000000,0.0000000000000000,0.1124282203941877
1.0009813649414570,0.3489900997209899,1.0314856109394583,0.2879681904505482,-0.0000652209849570,-0.0002316389495310,0.9993619590594717,8.0000000000000000,0.0000000000000000,0.1249202448824340
1.1009175607588022,0.3489858932829514,1.1314383982791210,0.2879318921162123,-0.0000420701127195,-0.0002266522784528,1.0992981549653440,8.0000000000000000,0.0000000000000000,0.1374122693706680
1.2008537565764228,0.3489816910669394,1.2313911867113005,0.2878955958868403,-0.0000199194519530,-0.0002216637031687,1.1992343508713141,8.0000000000000000,0.0000000000000000,0.1499042938589143
1.3007899524820414,0.3489819119344472,1.3313447353991787,0.2878622718681306,0.0000022343418107,-0.0002171855526138,1.2991705467771768,8.0000000000000000,0.0000000000000000,0.1623963183471471
1.4007261483877567,0.3489821376501812,1.4312982849203877,0.2878289511073176,0.0000234899439149,-0.0002127062319366,1.3991067426831469,8.0000000000000000,0.0000000000000000,0.1748883428353934
1.5006623441936757,0.3489866069257195,1.5312522020878427,0.2877992093843271,0.0000447484451411,-0.0002076482954272,1.4990429385890018,8.0000000000000000,0.0000000000000000,0.1873803673236252
1.6005985399994673,0.3489910816289384,1.6312061197255319,0.2877694722390672,0.0000649931053776,-0.0002025878757295,1.5989791344949722,8.0000000000000000,0.0000000000000000,0.1998723918118715
1.7005347355425071,0.3489995972531308,1.7311599677494525,0.2877439890387061,0.0000852401684153,-0.0001978882600205,1.6989153304008227,8.0000000000000000,0.0000000000000000,0.2123644163001028
1.8004709310851630,0.3490081187852574,1.8311138156715958,0.2877185120577258,0.0001045455052193,-0.0001931873878864,1.7988515263067928,8.0000000000000000,0.0000000000000000,0.2248564407883491
1.9004071262249145,0.3490204930132703,1.9310671812427476,0.2876979218954166,0.0001238529937000,-0.0001884072099917,1.8987877222126406,8.0000000000000000,0.0000000000000000,0.2373484652765801
2.0003433213640034,0.3490328735792780,2.0310205460203927,0.2876773397723174,0.0001422029049150,-0.0001836251683267,1.9987239181186109,8.0000000000000000,0.0000000000000000,0.2498404897648264
2.1002795159823218,0.3490489154478976,2.1309730136165004,0.2876622861383139,0.0001605545952903,-0.0001786825529884,2.0986601140244585,8.0000000000000000,0.0000000000000000,0.2623325142530573
2.2002157105996880,0.3490649640101172,2.2309254795723787,0.2876472426115040,0.0001779166141558,-0.0001737378658021,2.1985963099304286,8.0000000000000000,0.0000000000000000,0.2748245387413036
2.3001519046007202,0.3490844760669191,2.3308766184379368,0.2876383883094090,0.0001952799980764,-0.0001690366377232,2.2985325058362780,8.0000000000000000,0.0000000000000000,0.2873165632295347
2.4000880986005120,0.3491039950901577,2.4308277546341990,0.2876295464562557,0.0002117023712414,-0.0001643341353255,2.3984687017422472,8.0000000000000000,0.0000000000000000,0.2998085877177809
2.5000242919067741,0.3491267895258895,2.5307771521190627,0.2876275261159603,0.0002281258547603,-0.0001595657353314,2.4984048976480997,8.0000000000000000,0.0000000000000000,0.3123006122060125
2.5999604852115143,0.3491495911499872,2.6307265457880735,0.2876255207464601,0.0002435951564133,-0.0001547954582947,2.5983410935540698,8.0000000000000000,0.0000000000000000,0.3247926366942587
2.6998966777647238,0.3491754774719483,2.7306737870796383,0.2876309764880676,0.0002590651932513,-0.0001498056468055,2.6982772894599267,8.0000000000000000,0.0000000000000000,0.3372846611824908
2.7998328703161457,0.3492013711292183,2.8306210232529212,0.2876364499719491,0.0002735371693472,-0.0001448135274832,2.7982134853658964,8.0000000000000000,0.0000000000000000,0.3497766856707371
2.8997690620782484,0.3492301499995477,2.9305656734542502,0.2876500500529557,0.0002880094193560,-0.0001401622516715,2.8981496812717600,8.0000000000000000,0.0000000000000000,0.3622687101589700
2.9997052538383295,0.3492589362599335,3.0305103170319856,0.2876636709490669,0.0003015517338305,-0.0001355100844403,2.9980858771777306,8.0000000000000000,0.0000000000000000,0.3747607346472163
3.0996414447843179,0.3492904218649245,3.1304519671722084,0.2876860443191183,0.0003150941440477,-0.0001306759234345,3.0980220730836003,8.0000000000000000,0.0000000000000000,0.3872527591354500
3.1995776357280721,0.3493219148791081,3.2303936090960086,0.2877084417130626,0.0003276702431996,-0.0001258395266194,3.1979582689895705,8.0000000000000000,0.0000000000000000,0.3997447836236963
3.2995138258505254,0.3493559140989813,3.3303318387998595,0.2877402380251123,0.0003402459912176,-0.0001209451676619,3.2978944648954487,8.0000000000000000,0.0000000000000000,0.4122368081119311
3.3994500159705736,0.3493899206578651,3.4302700585115860,0.2877720618603459,0.0003518438431382,-0.0001160488576448,3.3978306608014188,8.0000000000000000,0.0000000000000000,0.4247288326001774
3.4993862052775149,0.3494262379679979,3.5302044396880174,0.2878139383046475,0.0003634409539621,-0.0001113449473343,3.4977668567073059,8.0000000000000000,0.0000000000000000,0.4372208570884132
3.5993223945819257,0.3494625624690166,3.6301388089192135,0.2878558460319197,0.0003740986240781,-0.0001066398782019,3.5977030526132761,8.0000000000000000,0.0000000000000000,0.4497128815766595
3.6992585830920577,0.3495010099530177,3.7300689289720164,0.2879084375653084,0.0003847553214809,-0.0001017940436086,3.6976392485191720,8.0000000000000000,0.0000000000000000,0.4622049060648965
3.7991947715995718,0.3495394644334860,3.8299990350212978,0.2879610643080698,0.0003944444430464,-0.0000969459960569,3.7975754444251422,8.0000000000000000,0.0000000000000000,0.4746969305531428
3.8991309593459040,0.3495798485052382,3.9299244711109682,0.2880250222550561,0.0004041321495893,-0.0000920670357868,3.8975116403310470,8.0000000000000000,0.0000000000000000,0.4871889550413809
3.9990671470895882,0.3496202392906337,4.0298498909524083,0.2880890196267970,0.0004128461016961,-0.0000871861863683,3.9974478362370172,8.0000000000000000,0.0000000000000000,0.4996809795296271
4.0990033341169436,0.3496623650406873,4.1297702176007220,0.2881649989977221,0.0004215582611917,-0.0000823287728657,4.0973840321429318,8.0000000000000000,0.0000000000000000,0.5121730040178665
4.1989395211416758,0.3497044971460906,4.2296905255921580,0.2882410222599135,0.0004293013504437,-0.0000774696612805,4.1973202280489028,8.0000000000000000,0.0000000000000000,0.5246650285061129
4.2988757075046902,0.3497481705257703,4.3296053144436879,0.2883296764809256,0.0004370423076847,-0.0000729522826568,4.2972564239548268,8.0000000000000000,0.0000000000000000,0.5371570529943533
4.3988118938651590,0.3497918498346697,4.4295200820633109,0.2884183792927237,0.0004438824976665,-0.0000684345010014,4.3971926198607969,8.0000000000000000,0.0000000000000000,0.5496490774825996
4.4987480796213619,0.3498368903793469,4.5294288378981609,0.2885204229461067,0.0004507204750823,0.0000257930499009,4.4971288157667297,8.0000000000000000,0.0000000000000000,0.5621411019708412
4.5986842653751294,0.3498819364110128,4.6293375695001799,0.2886225203749260,0.0004387271790907,0.0001204003724811,4.5970650116726999,8.0000000000000000,0.0000000000000000,0.5746331264590875
4.6986204521828681,0.3499245798271652,4.7292354667491034,0.2887430235107520,0.0004266557646595,0.0011135016486537,4.6970012075785483,8.0000000000000000,0.0000000000000000,0.5871251509473185
4.7985566389950476,0.3499672131165884,4.8291333183325582,0.2888636042243716,0.0002161689412878,0.0021105900148660,4.7969374034845176,8.0000000000000000,0.0000000000000000,0.5996171754355647
4.8984928348604404,0.3499677860291943,4.9289792129592742,0.2890436090728673,0.0000048070903360,0.0060477267423381,4.8968735993515526,8.0000000000000000,0.0000000000000000,0.6121091999189441
4.9984290307656583,0.3499681739212313,5.0288248790310783,0.2892238753238530,-0.0009926046674928,0.0099986903535330,4.9968097952575237,8.0000000000000000,0.0000000000000000,0.6246012244071905
5.0983650280647410,0.3497693918921608,5.1284680150526718,0.2896006835629715,-0.0019936550565220,0.0164995195930418,5.0967459902544183,8.0000000000000000,0.0000000000000000,0.6370932487818023
5.1983010244541257,0.3495696975824210,5.2281102234028145,0.2899783920457385,-0.0042904030973028,0.0230138449144182,5.1966821861603885,8.0000000000000000,-5.6897022815422895,0.6495852732700486
5.2982350502339255,0.3489118636683146,5.3273509706405200,0.2906561329684440,-0.0065934871694273,0.0270887163756229,5.2966183770724715,7.9286055301747576,-6.5825708982870657,0.6621332883141485
5.3981690666426720,0.3482518511132323,5.4265898087666322,0.2913353006679694,-0.0097046894951358,0.0311538438786523,5.3965545729784417,7.8451967128559268,-6.5280953871340852,0.6748044495682621
5.4980970600277823,0.3469722040279821,5.5254785135739501,0.2920100558825402,-0.0128202801644490,0.0327328766764117,5.4964907594107721,7.7615929774816275,-6.4780547071243744,0.6876112071930160
5.5980250237118323,0.3456895013672877,5.6243654917848325,0.2926847893380256,-0.0162470875372360,0.0343007570744108,5.5964269553167432,7.6777302153364673,-6.4520681971458087,0.7005568777587384
5.6979418976326990,0.3437250217352756,5.7231751692839259,0.2927411532505066,-0.0196760541138075,0.0355186364311864,5.6963631393260545,7.5932832892174762,-6.4291242976705050,0.7136452276550318
5.7978587148382346,0.3417570553554606,5.8219844514512635,0.2927943546938280,-0.0233462819320829,0.0367352750749643,5.7962993352320247,7.5081919700869202,-6.3129973683784968,0.7268805168158570
5.8977584746133145,0.3390591998632497,5.9210206721046550,0.2915739722709120,-0.0270184208877333,0.0396834853631752,5.8962355170050715,7.4236886353483085,-6.2028378150446164,0.7402661290389643
5.9976581439927550,0.3363574763328044,6.0200580954157195,0.2903468405062049,-0.0312779145062112,0.0426416088858361,5.9961717129110417,7.3397123189185765,-5.9317180685940576,0.7538044995290087
6.0975312904814611,0.3328086843652704,6.1194839341737115,0.2873950987251378,-0.0355413004062684,0.0487471462037880,6.0961078891135729,7.2584978115524423,-5.6712538361969385,0.7674960651811477
6.1974042915404777,0.3292552477720418,6.2189119026821302,0.2844339006030663,-0.0410211222514822,0.0548714251636954,6.1960440850195431,7.1799904882595964,-5.3635347884417675,0.7813390927655895
6.2972325333274437,0.3246121172096335,6.3186294102330978,0.2796674977858724,-0.0465085815475881,0.0621325321380253,6.2959802472417161,7.1049448446905137,-5.0668459455819166,0.7953309184046818
6.3970605217675178,0.3199628187501926,6.4183485566359373,0.2748908771304622,-0.0534396979663820,0.0694021885398202,6.3959164431476871,7.0333149103398043,-4.7978858062831256,0.8094679052244939
6.4968147882618101,0.3139363372156054,6.5181523513971289,0.2683686206401542,-0.0603801591176827,0.0763187905939639,6.4958525835749672,6.9648082707729060,-4.5378613552569673,0.8237464108690393
6.5965686249727398,0.3079018269947492,6.6179566396403597,0.2618361874618578,-0.0686937129485257,0.0832354771081449,6.5957887794809373,6.8993884544820707,-4.3305552043639572,0.8381628531464237
6.6962088778966828,0.3002176313375547,6.7176592563681972,0.2535783506382739,-0.0770166261868435,0.0892126946810964,6.6957248934020086,6.8363735510393875,-4.1299544077225203,0.8527140828315186
6.7958484501349385,0.2925235494343103,6.8173612637982890,0.2453101738040450,-0.0865248603003310,0.0951861085344633,6.7956610893079787,6.7757316552387996,-3.9545402720036580,0.8673975126745200
6.8953245419394538,0.2829460532759202,6.9168408253579514,0.2352271375878440,-0.0960416908998349,0.1007412662993148,6.8955971752497662,6.7171524406431846,-3.7843385748748286,0.8822106668128984
6.9947996283921166,0.2733569747283382,7.0163190189473763,0.2251329405727731,-0.1066602470718077,0.1062953695529909,6.9955333711557364,6.6606119920358875,-3.6248743785842725,0.8971513090119564
7.0940498749281149,0.2616692142306201,7.1154809193855888,0.2130835330702607,-0.1172871857232349,0.1117142629070325,7.0954694266257645,6.6060003644044789,-3.4696104459538075,0.9122171076928854
7.1932987048399655,0.2499682307982334,7.2146408269903120,0.2010218065879539,-0.1289888283098464,0.1171335512785027,7.1954056225317347,6.5533015706606719,-3.3196888399659317,0.9274057850861251
7.2922482313650585,0.2359611038712445,7.3133921250592868,0.1868478293650523,-0.1406989283563753,0.1225174002243742,7.2953416440869718,6.5024801795229328,-3.1731283005259030,0.9427148678308382
7.3911958292075397,0.2219391163744970,7.4121407900872018,0.1726602409988929,-0.1534766527702742,0.1279021357855265,7.3952778399929411,6.4535283172956115,-3.0306632797968649,0.9581418715921448
7.4897550892411653,0.2054081423513391,7.5103814647511280,0.1561981342398782,-0.1662630070136508,0.1332610251133156,7.4952138237051660,6.4064251427611554,-2.8907885362144019,0.9736840714955314
7.5883117941244880,0.1888606599235472,7.6086187969855947,0.1397210618086362,-0.1801118243178277,0.1386205749531508,7.5951500196111361,6.3611708270448597,-2.7496239272377618,0.9893387328965199
7.6863753992870940,0.1696065216868882,7.7062394877373741,0.1208024247410484,-0.1939693976826427,0.1440658234275150,7.6950859615775968,6.3178257158932878,-2.6102220026290657,1.0051027472848859
7.7844356979297045,0.1503342337511381,7.8038560435498958,0.1018674155646331,-0.2089065684406373,0.1495125156939336,7.7950221574835670,6.2764010755827986,-2.4631964496695211,1.0209729070907436
7.8818803810428495,0.1281595428876718,7.9007325072533670,0.0803307237080191,-0.2238527768652043,0.1551842135119532,7.8949580528461016,6.2370575575565939,-2.3169820597506754,1.0369454528580462
7.9793208632597432,0.1059650463289372,7.9976039206453731,0.0587762782397832,-0.2399235617271296,0.1608578054734705,7.9948942487520718,6.1998214676074426,-2.1974432894661047,1.0530163972973650
8.0760025575999439,0.0806703306008046,8.0935814461375521,0.0344814505911346,-0.2560037543773883,0.1658629556015654,8.0948300914925966,6.1642987870634149,-2.0784086816260876,1.0691818568176688
8.1726789941978417,0.0553541330409600,8.1895527777613655,0.0101676344692169,-0.2730749287991476,0.1708635144584170,8.1947662873985667,6.1305108287835344,-1.9043625814787484,1.0854385047900232
8.2684408395521203,0.0267738678789930,8.2845110122581680,-0.0171035844892106,-0.2901545847238434,0.1772899994252038,8.2947020796973483,6.0993880885727974,-1.7283281319991490,1.1017813695960366
8.3641962640255443,-0.0018293126446966,8.3794621343143110,-0.0443955658717111,-0.3085102334730823,0.1837277949003780,8.3946382756033184,6.0710040337200555,-1.5616469549031249,1.1182042087127668
8.4588445353300674,-0.0339050588788390,8.4731851869895678,-0.0747169820153940,-0.3268766116707331,0.1898579938328888,8.4945739987327968,6.0452428687376001,-1.3923525437639919,1.1347003603567563
8.5534849312798560,-0.0660055060193954,8.5668995042140441,-0.1050599470053083,-0.3464575150446820,0.1959829162278995,8.5945101946387670,6.0221813746229245,-1.3098483230031412,1.1512633308615774
8.6468047423211036,-0.1017622942363953,8.6591495157310785,-0.1385269776273664,-0.3660480797812651,0.1996994349436318,8.6944458491188854,6.0004056037902345,-1.2263999827661303,1.1678879815560668
8.7401150972472728,-0.1375452638687290,8.7513890420129830,-0.1720163782794996,-0.3863718106279217,0.2034019045300788,8.7943820450248538,5.9799451429025385,-0.7417107557075956,1.1845713321555569
8.8319047557668124,-0.1770646783650436,8.8421206453397474,-0.2090394397637318,-0.4067023851407734,0.2178591139437149,8.8943176519588452,5.9675369528006650,-0.2351787158399277,1.2013004816338277
8.9236834139312009,-0.2166111214124374,8.9328413407114624,-0.2460880629077165,-0.4299157044969686,0.2323896933096994,8.9942538478648153,5.9635971988895475,-0.2328355221381666,1.2180526519866883
9.0135399007155268,-0.2603478437150704,9.0212822239964119,-0.2858546872138190,-0.4531504897373018,0.2313398063460352,9.0941892724899169,5.9596941630471179,-0.2806510154591960,1.2348157120498069
9.1033824452835646,-0.3041149596549700,9.1097065709654306,-0.3256410261824486,-0.4761539664846950,0.2301746409865197,9.1941254683958871,5.9549861567709463,-0.2503759339608345,1.2515910166695616
9.1911323738218247,-0.3519379904475844,9.1960509376100585,-0.3691144987814928,-0.4991558718498190,0.2329624600565096,9.2940609087194339,5.9507829122662521,-0.1580015330713994,1.2683787503714425
9.2788671303198651,-0.3997904277354188,9.2823802238267987,-0.4126147041107386,-0.5227165545562431,0.2357813046179260,9.3939971046254040,5.9481288759235103,-0.0807850358045311,1.2851762857570170
9.3642669599955415,-0.4516937367083410,9.3665873921568341,-0.4603799755892937,-0.5462818577455431,0.2380724297483781,9.4939325057151738,5.9467714395867555,0.0000000000000000,1.3019793523551337
9.4496498223919243,-0.5036264822660010,9.4507791396323348,-0.5081762401456051,-0.5703004712907074,0.2403568101618830,9.5938687016211439,5.9467714395867555,0.0000000000000000,1.3187844703794636
9.5324587695315657,-0.5595707104005943,9.5327512757910089,-0.5607996303422078,-0.5943223500224000,0.2363671824485403,9.6938040726763983,5.9467714395867555,0.1410895557341100,1.3355894496981573
9.6152490370088017,-0.6155440510477661,9.6147073035755000,-0.6134580524137412,-0.6175435504249069,0.2323319719752583,9.7937402685823702,5.9491419937373315,0.2772393643239506,1.3523912188882419
9.6953714783923370,-0.6752724684581929,9.6945315468838889,-0.6717260352418954,-0.6407589181861044,0.2309000920251769,9.8936756950317140,5.9537973201859593,0.3151222237757024,1.3691829413046448
9.7754745827156864,-0.7350281035892756,9.7743403384936745,-0.7300346775471531,-0.6636939264199704,0.2294878604767428,9.9936118909376841,5.9590843896048877,0.3507284708295049,1.3859607786643215
9.8527739685230529,-0.7983676502396444,9.8516948558074056,-0.7934334951700247,-0.6866270334835334,0.2269615392006334,10.0935473361814534,5.9649633003243769,0.4245297769696305,1.4027227789250505
9.9300530378037593,-0.8617331669128662,9.9290315887647935,-0.8568691976235103,-0.7090571017378720,0.2244277857956490,10.1934835320874235,5.9720715799574098,0.4956396200875672,1.4194666683261026
