# x_m,y_m,w_tr_right_m,w_tr_left_m,psi,kappa,s,velocity,acceleration,time
0.0041890746759957,-0.4650228063161067,0.5349202359672646,1.3650797640327357,-0.0136156117665180,-0.0114668948244011,0.0000000000000000,8.0000000000000000,0.0000000000000000,0.0000000000000000
0.1055930264187490,-0.4664035684798257,0.5335824619973518,1.3664175380026482,-0.0124527155270784,-0.0169631878072658,0.1001658903120368,8.0000000000000000,0.0000000000000000,0.0126766689810944
0.2070128748689505,-0.4675486439640327,0.5324509137855605,1.3675490862144395,-0.0101748044462286,-0.0219870708756439,0.2019936852577829,8.0000000000000000,0.0000000000000000,0.0253549580375424
0.3084474808005812,-0.4684676441136411,0.5315808074776063,1.3684191925223939,-0.0079923066045757,-0.0210442896276971,0.3038171123762990,8.0000000000000000,0.0000000000000000,0.0380348041536361
0.4098957049876241,-0.4691701802735649,0.5308536522956657,1.3691463477043342,-0.0059051406105994,-0.0201026515888872,0.4056341326531924,8.0000000000000000,0.0000000000000000,0.0507161362429222
0.5113564082040601,-0.4696658637887174,0.5303128431888114,1.3696871568111888,-0.0039132258918295,-0.0191621402353232,0.5074428341276567,8.0000000000000000,0.0000000000000000,0.0633988754970971
0.6128284512238715,-0.4699643060040124,0.5300152029656795,1.3699847970343209,-0.0020164832572074,-0.0182227309478720,0.6092414262258495,8.0000000000000000,0.0000000000000000,0.0760829357342426
0.7143106948210396,-0.4700751182643634,0.5299866022020709,1.3700133977979294,-0.0002148354320717,-0.0172843914194955,0.7110282340132765,8.0000000000000000,0.0000000000000000,0.0887682237463898
0.8158019997695463,-0.4700079119146842,0.5299979910261550,1.3700020089738454,0.0014917924339717,-0.0163470820579198,0.8128016923707619,8.0000000000000000,0.0000000000000000,0.1014546396464063
0.9173012268433728,-0.4697722982998882,0.5302550682424624,1.3697449317575376,0.0031034722860408,-0.0154107563835927,0.9145603400985401,8.0000000000000000,0.0000000000000000,0.1141420772142081
1.0188072368165002,-0.4693778887648888,0.5306143364383855,1.3693856635616146,0.0046202727095710,-0.0144753614229994,1.0163028139529757,8.0000000000000000,0.0000000000000000,0.1268304242423046
1.1203188904629124,-0.4688342946546002,0.5311440581327557,1.3688559418672444,0.0060422585022752,-0.0135408380971267,1.1180278426204591,8.0000000000000000,0.0000000000000000,0.1395195628806896
1.2218350485565896,-0.4681511273139355,0.5318452799288609,1.3681547200711393,0.0073694902721690,-0.0126071216051487,1.2197342406329599,8.0000000000000000,0.0000000000000000,0.1522093699810974
1.3233545718715138,-0.4673379980878086,0.5327104725428609,1.3672895274571393,0.0086020240614344,-0.0116741418036906,1.3214209022297225,8.0000000000000000,0.0000000000000000,0.1648997174406504
1.4248763211816664,-0.4664045183211330,0.5337962092519857,1.3662037907480145,0.0097399109958822,-0.0107418235815340,1.4230867951696020,8.0000000000000000,0.0000000000000000,0.1775904725449258
1.5263991572610296,-0.4653602993588223,0.5346636145656968,1.3653363854343032,0.0107831969597449,-0.0098100872300703,1.5247309544984684,8.0000000000000000,0.0000000000000000,0.1902814983104757
1.6279219408835843,-0.4642149525457903,0.5358651689006263,1.3641348310993739,0.0117319222956025,-0.0088788488098170,1.6263524762761463,8.0000000000000000,0.0000000000000000,0.2029726538268396
1.7294435328233133,-0.4629780892269503,0.5370194751475110,1.3629805248524891,0.0125861215292147,-0.0079480205131433,1.7279505112673235,8.0000000000000000,0.0000000000000000,0.2156637945980912
1.8309627938541979,-0.4616593207472161,0.5383520182088676,1.3616479817911324,0.0133458231190671,-0.0070175110235875,1.8295242586008214,8.0000000000000000,0.0000000000000000,0.2283547728839642
1.9324785847502193,-0.4602682584515012,0.5397719555150713,1.3602280444849286,0.0140110492304517,-0.0060872258720925,1.9310729594016638,8.0000000000000000,0.0000000000000000,0.2410454380406079
2.0339897662853592,-0.4588145136847194,0.5411061236918150,1.3588938763081850,0.0145818155339248,-0.0051570677905143,2.0325958904003345,8.0000000000000000,0.0000000000000000,0.2537356368610234
2.1354951992336009,-0.4573076977917842,0.5425113273121789,1.3574886726878213,0.0150581310279998,-0.0042269370627671,2.1340923575235848,8.0000000000000000,0.0000000000000000,0.2664252139152348
2.2369937443689234,-0.4557574221176091,0.5441287804209538,1.3558712195790463,0.0154399978859556,-0.0032967318740718,2.2355616894711927,8.0000000000000000,0.0000000000000000,0.2791140118902531
2.3384842624653119,-0.4541732980071079,0.5457555561413627,1.3542444438586374,0.0157274113266745,-0.0023663486587349,2.3370032312830435,8.0000000000000000,0.0000000000000000,0.2918018719298927
2.4399656142967450,-0.4525649368051942,0.5473033019030542,1.3526966980969459,0.0159203595094353,-0.0014356824468045,2.4384163379008648,8.0000000000000000,0.0000000000000000,0.3044886339744973
2.5414366606372041,-0.4509419498567813,0.5488257432265824,1.3511742567734177,0.0160188234526051,-0.0005046272102070,2.5398003677290140,8.0000000000000000,0.0000000000000000,0.3171741371006438
2.6428962622606740,-0.4493139485067833,0.5505812692156941,1.3494187307843062,0.0160227769762349,0.0004269237912431,2.6411546761986440,8.0000000000000000,0.0000000000000000,0.3298582198608821
2.7443432799411340,-0.4476905441001134,0.5522476413937567,1.3477523586062434,0.0159321866685371,0.0013590776635369,2.7425319527941263,8.0000000000000000,0.0000000000000000,0.3425407206235762
2.8457765744525663,-0.4460813479816854,0.5538707390486651,1.3461292609513349,0.0157470118762906,0.0022919415312167,2.8438338959141904,8.0000000000000000,0.0000000000000000,0.3552214779129143
2.9471950065689536,-0.4444959714964129,0.5554728395758539,1.3445271604241462,0.0154672047192390,0.0032256221888334,2.9451039780500308,8.0000000000000000,0.0000000000000000,0.3679003307491496
3.0485974370642763,-0.4429440259892095,0.5569389240260393,1.3430610759739607,0.0150927101285501,0.0041602257505739,3.0463414844123893,8.0000000000000000,0.0000000000000000,0.3805771189891377
3.1499827267125178,-0.4414351228049890,0.5583354099379788,1.3416645900620212,0.0146234659094653,0.0050958572975670,3.1475456666745041,8.0000000000000000,0.0000000000000000,0.3932516836672373
3.2513497362876569,-0.4399788732886645,0.5598775388389842,1.3401224611610161,0.0140594028282606,0.0060326205223650,3.2487157366385855,8.0000000000000000,0.0000000000000000,0.4059238673366347
3.3526973265636792,-0.4385848887851502,0.5613735654998159,1.3386264345001844,0.0134004447237046,0.0069706173700941,3.3498508599348984,8.0000000000000000,0.0000000000000000,0.4185935144111592
3.4540243583145624,-0.4372627806393594,0.5627100045091071,1.3372899954908930,0.0126465086431913,0.0079099476759520,3.4509501497577522,8.0000000000000000,0.0000000000000000,0.4312604715076476
3.5553296923142903,-0.4360221601962055,0.5639470612012220,1.3360529387987783,0.0117975050037542,0.0088507087983772,3.5520126606428555,8.0000000000000000,0.0000000000000000,0.4439245877889216
3.6566121893368444,-0.4348726388006026,0.5650881996308861,1.3349118003691141,0.0108533377782327,0.0097929952475597,3.6530373822903486,8.0000000000000000,0.0000000000000000,0.4565857153074344
3.7578707101562063,-0.4338238277974640,0.5661360770796029,1.3338639229203972,0.0098139047068220,0.0107368983089194,3.7540232334379646,8.0000000000000000,0.0000000000000000,0.4692437093496429
3.8591041155463586,-0.4328853385317034,0.5670708171690411,1.3329291828309591,0.0086790975343110,0.0116825056610293,3.8549690557886942,8.0000000000000000,0.0000000000000000,0.4818984287811613
3.9603112662812809,-0.4320667823482344,0.5678818328264288,1.3321181671735716,0.0074488022733084,0.0126299009876411,3.9558736079973591,8.0000000000000000,0.0000000000000000,0.4945497363927452
4.0614910231349572,-0.4313777705919706,0.5686026632794312,1.3313973367205691,0.0061228994937921,0.0135791635834624,4.0567355597205461,8.0000000000000000,0.0000000000000000,0.5071974992471553
4.1626422468813677,-0.4308279146078258,0.5691955520504469,1.3308044479495533,0.0047012646393194,0.0145303679534154,4.1575534857342733,8.0000000000000000,0.0000000000000000,0.5198415890269446
4.2637637982944945,-0.4304268257407132,0.5696028049141867,1.3303971950858136,0.0031837683702560,0.0154835834049752,4.2583258601238789,8.0000000000000000,0.0000000000000000,0.5324818823832101
4.3648545381483199,-0.4301841153355467,0.5698111140990723,1.3301888859009279,0.0015702769344139,0.0164388736333661,4.3590510505505300,8.0000000000000000,0.0000000000000000,0.5451182612853464
4.4659133272168248,-0.4301093947372399,0.5698732624569195,1.3301267375430808,-0.0001393474345235,0.0173962962995052,4.4597273125987957,8.0000000000000000,0.0000000000000000,0.5577506133718297
4.5669390262739915,-0.4302122752907063,0.5697723083604407,1.3302276916395595,-0.0019452460903984,0.0183559026003978,4.5603527842097691,8.0000000000000000,0.0000000000000000,0.5703788323020653
4.6679304960938008,-0.4305023683408596,0.5695534811714336,1.3304465188285666,-0.0038475635193760,0.0193177368319324,4.6609254802041065,8.0000000000000000,0.0000000000000000,0.5830028181093139
4.7688865974502335,-0.4309892852326134,0.5689615808985190,1.3310384191014810,-0.0058464468557535,0.0202818359440258,4.7616632419092619,8.0000000000000000,-6.8119803110807142,0.5956224775547175
4.8698061911172763,-0.4316826373108813,0.5682632211302411,1.3317367788697589,-0.0079420453683559,0.0212482290880623,4.8621331426664884,7.9135986113110084,-7.1406732649109159,0.6083062177805145
4.9706881378689047,-0.4325920359205769,0.5673793691724706,1.3326206308275295,-0.0101345099171182,0.0222169371567947,4.9625437609576215,7.8220364614629005,-7.1145358374476011,0.6211288391848634
5.0715312984791048,-0.4337270924066139,0.5662634398150054,1.3337365601849946,-0.0124239923794611,0.0231879723167695,5.0628925969938487,7.7297644823835574,-7.0909216390593555,0.6340983401034850
5.1723345337218536,-0.4350974181139057,0.5648492935397504,1.3351507064602497,-0.0148106450460586,0.0241613375334822,5.1631770029679860,7.6367238514490197,-7.0698383615312554,0.6472194315032315
5.2730967043711390,-0.4367126243873661,0.5632265492420045,1.3367734507579956,-0.0172946199856261,0.0251370260896244,5.2633941781749245,7.5428524860892088,-7.0512962004326383,0.6604971559092926
5.3738166712009399,-0.4385823225719087,0.5613654615344894,1.3386345384655105,-0.0198760683783776,0.0261150210967880,5.3635411642516289,7.4480847386409410,-7.0353078483651865,0.6739369185790912
5.4744932949852352,-0.4407161240124470,0.5592105912693628,1.3407894087306373,-0.0225551398178159,0.0270952950010376,5.4636148405410347,7.3523510562547791,-7.0348265430162913,0.6875445224607618
5.5751254364980110,-0.4431236400538948,0.5568244835101281,1.3431755164898720,-0.0253319815805444,0.0278334184187933,5.5636119195841793,7.2553981010967172,-7.0341055157092214,0.7013263768626035
5.6757119565132443,-0.4458144820411654,0.5539580718076326,1.3460419281923675,-0.0281575460698458,0.0261037483974592,5.6635289427447795,7.1571798190122911,-7.1608164760318633,0.7152895285192108
5.7762545683898692,-0.4487884400375798,0.5509937989448169,1.3490062010551833,-0.0305842930767437,0.0191990603629431,5.7633653116708672,7.0558244593334178,-7.5420422846460866,0.7294436909695574
5.8767780585959155,-0.4519658647537216,0.5478940699941983,1.3521059300058018,-0.0320196344408139,0.0083713492236936,5.8631450000496335,6.9474885160912976,-8.0955229995317897,0.7438079624962058
5.9773183888509474,-0.4552286311687918,0.5446078024479558,1.3553921975520444,-0.0322683318960055,-0.0034262385022091,5.9632534553690517,6.8292669157023722,-7.8152091641248926,0.7584112932996342
6.0779115941387003,-0.4584583620177713,0.5414273629920914,1.3585726370079088,-0.0313301440338356,-0.0151953677803661,6.0630435562088456,6.7131037922364802,-7.3276297987989398,0.7732750187644791
6.1785937094429109,-0.4615366800356416,0.5384599023326981,1.3615400976673020,-0.0292083768093738,-0.0268956708238596,6.1628888489272740,6.6022382935537989,-6.8755038869581941,0.7884048085773943
6.2794007697473138,-0.4643452079573838,0.5355806604883776,1.3644193395116226,-0.0259086400528321,-0.0384926018348803,6.2628280738238278,6.4963692885480127,-6.4570914355910025,0.8038028080180758
6.3803688100356410,-0.4667655685179787,0.5331182373688095,1.3668817626311907,-0.0214389060267712,-0.0499506726360362,6.3629512097987595,6.3951950409216787,-6.0708870839897262,0.8194715109682414
6.4815338652916346,-0.4686793844524081,0.5312371909338709,1.3687628090661295,-0.0158096029587647,-0.0612330312610524,6.4634783025936180,6.2984106391516193,-5.7156278311256834,0.8354138930997262
6.5829319704990290,-0.4699682784956530,0.5299331102167592,1.3700668897832409,-0.0090337397317712,-0.0723011195911547,6.5644773385624644,6.2057050588413754,-5.3902962414004776,0.8516335601335726
6.6845991606415529,-0.4705138733826942,0.5293618552731906,1.3706381447268094,-0.0011270566636150,-0.0831144314594641,6.6659954960611625,6.1167578789149966,-5.0941192457933440,0.8681349129243924
6.7865714707029490,-0.4701977918485133,0.5297420283238765,1.3702579716761234,0.0078918039415017,-0.0936303917348088,6.7680783287504047,6.0312356730495571,-4.8265624810763983,0.8849233314397347
6.8888849356669475,-0.4689016566280913,0.5309990602369182,1.3690009397630820,0.0180011150102741,-0.1038043752651405,6.8707689686201965,5.9487880978609233,-4.6352416405175489,0.9020053801051954
6.9915755905172876,-0.4665070904564094,0.5333528547528456,1.3666471452471545,0.0291758783880836,-0.1122307336856985,6.9741073134620430,5.8682049257945899,-4.6321799949669895,0.9193902714044841
7.0946794702377041,-0.4628957160684490,0.5370143618347699,1.3629856381652301,0.0411078155894655,-0.1115771183517634,7.0781291924593797,5.7861949353211397,-4.7497860221924304,0.9370946763633926
7.1982136073996363,-0.4580078649460418,0.5419911799174303,1.3580088200825702,0.0522518739710496,-0.0959742091112435,7.1828451276748213,5.7004759805225902,-5.3635259892891938,0.9551415850868685
7.3021097955867811,-0.4520472179855674,0.5478183764105324,1.3521816235894677,0.0610432407815398,-0.0716345549401025,7.2881699030363034,5.6017045565373618,-6.2391757721884504,0.9735569752951889
7.4062759378458143,-0.4452912668958541,0.5546430196230441,1.3453569803769563,0.0671842424844156,-0.0462743453015944,7.3939911483082694,5.4842083496289957,-7.1005926156915837,0.9923889831113677
7.5106199360360515,-0.4380175070541550,0.5620426997716672,1.3379573002283329,0.0707137559598419,-0.0213591219475832,7.5001964768033940,5.3470680551803138,-7.8869796610678371,1.0117029054656252
7.6150496920167967,-0.4305034338377230,0.5695887517522726,1.3304112482477275,0.0716546416521155,0.0033449001400488,7.6066746952151343,5.1903378860587157,-7.7894945138601512,1.0315749193235104
7.7194731076473602,-0.4230265426238111,0.5770574675532287,1.3229425324467714,0.0700133656777511,0.0280736432575943,7.7133170300622389,5.0307684590729531,-7.2373780428448340,1.0520601288196896
7.8237980847870512,-0.4158643287896726,0.5843791581845010,1.3156208418154991,0.0657799147383760,0.0530624943202724,7.8200183802476282,4.8780117062149646,-6.7415533439925195,1.0731667715781137
7.9279325252951791,-0.4092942877125604,0.5906721751641654,1.3093278248358347,0.0589279720359979,0.0785436312978879,7.9266786037078232,4.7316118527700866,-6.2921000660163973,1.0948828132638679
8.0317843310310533,-0.4035939147697276,0.5962841588422779,1.3037158411577221,0.0494153785122236,0.1047426061609843,8.0332038457937589,4.5912189622840787,-5.8808544709978081,1.1171953780694197
8.1352614038539794,-0.3990407053384272,0.6007180178927728,1.2992819821072275,0.0371849432405442,0.1318734893909025,8.1395079165671707,4.4565734239089982,-5.5011845404418818,1.1400909520100948
8.2382716456232732,-0.3959121547959122,0.6037862912972441,1.2962137087027561,0.0221657079952315,0.1601318232868487,8.2455137235825635,4.3274897333782469,-5.1478598004727960,1.1635556603073340
8.3407229581982421,-0.3944857585194359,0.6050077207247039,1.2949922792752961,0.0042748140057691,0.1896837820529366,8.3511547659099588,4.2038381483814256,-4.8226614087931878,1.1875756588677970
8.4425232434381901,-0.3950390118862511,0.6042002287883115,1.2957997712116887,-0.0165796761312593,0.2203273088484284,8.4563766940892151,4.0853817524479314,-4.5385319227894465,1.2121381122296506
8.5435803128137255,-0.3978493759688544,0.6012513433185026,1.2987486566814976,-0.0404291404604775,0.2511599855142986,8.5611388470507119,3.9714843510537645,-4.2911084965455801,1.2372337606313399
8.6437626435883459,-0.4031793835320726,0.5957567142217973,1.3042432857782029,-0.0671683597054724,0.2822545789771269,8.6653757520302541,3.8615651577372017,-4.0499263158642194,1.2628493313877192
8.7428380241285204,-0.4112533534057279,0.5870361849226561,1.3129638150773439,-0.0968032378280981,0.3154619847782486,8.7689351644040201,3.7558659654543400,-3.7938595386172671,1.2889483722193562
8.8405583597102044,-0.4222895763926562,0.5754850893773759,1.3245149106226239,-0.1295495103425863,0.3522470310835134,8.8716655845227343,3.6551800267590639,-3.5169789292464548,1.3154875568334425
8.9366755556093516,-0.4365063432956941,0.5606027287478211,1.3393972712521789,-0.1656691078780166,0.3930787971868760,8.9734342697771687,3.5604636197104496,-3.2153620706966972,1.3424187409417614
9.0309415171019261,-0.4541219449176778,0.5422305056389520,1.3577694943610481,-0.2054375688790357,0.4381879180452718,9.0741292090269443,3.4727811806558551,-2.8853044118349480,1.3696885902236482
9.1231081494638726,-0.4753546720614433,0.5195359655286891,1.3804640344713111,-0.2491344874957733,0.4876229341272059,9.1736612221380121,3.3932905360992600,-2.5237318278713041,1.3972387662919132
9.2129273579711555,-0.5004228155298266,0.4916980105279260,1.4083019894720743,-0.2970290343180946,0.5411455371199965,9.2719661782145462,3.3232116224186936,-2.1289184565832477,1.4250067378753584
9.3001510478997300,-0.5295446661256646,0.4593015535264754,1.4406984464735246,-0.3493593094693284,0.5981001576299440,9.3690073208442470,3.2637705804982060,-1.7016228204506132,1.4529275075679118
9.3845311245255498,-0.5629385146517933,0.4290619159361315,1.4703794693819638,-0.4063046330710200,0.6572695997710649,9.4651598132170314,3.2161097091846904,-1.2467305286775201,1.4809365767580478
9.4658194931245756,-0.6008226519110491,0.4207877014877793,1.5048665000523165,-0.4679508047745973,0.7167445714529167,9.5654480047378705,3.1811540457625966,-0.7753816900714406,1.5089744426946214
9.5437680589727591,-0.6434153687062678,0.4242231522286419,1.5570295684139006,-0.5342500975982367,0.7738553564687135,9.6882504543895482,3.1594291303442437,-0.3095161051072552,1.5369927924912885
9.6181287273460558,-0.6909349558402862,0.4210284482155460,1.5586395982156247,-0.6049803385245678,0.8250411261576029,9.8374894468841934,3.1507720305559590,0.0000000000000000,1.5649625803163347
9.6886534035204299,-0.7435997041159395,0.4259787898583547,1.4770098920645274,-0.6796770227693916,0.8562192005178786,10.3431198236969166,3.1507720305559590,0.0000000000000000,1.5928982034918728
9.7550978984544177,-0.8016234866316166,0.4726826909918335,1.3645600374787481,-0.7558738425852032,0.8400540031726368,10.4442797684071476,3.1507720305559590,0.1604778044587606,1.6208956429265504
9.8174262438548627,-0.8649846586971652,0.5256274672243199,1.2996562358319004,-0.8284442525480236,0.7732122288128200,10.5332659436524221,3.1552956396247476,0.8019836598978249,1.6490840212761000
9.8759110284847988,-0.9333125677732550,0.5692289241876853,1.2597324324002142,-0.8941386803666731,0.6856317552219858,10.6146057473608391,3.1780734923900189,1.5750156575082073,1.6774859126165960
9.9308497922819789,-1.0062083391307044,0.6048203595340067,1.2209418767024705,-0.9526944091397889,0.5984667198197995,10.6962400894365253,3.2229933874780183,2.2833154082018243,1.7060061973984413
9.9825400751841471,-1.0832730980403311,0.6208223066584346,1.2122047260747908,-1.0043013567371819,0.5160703932357896,10.7795758761040208,3.2880762858490074,2.9205329859900204,1.7345098803049757
