# x_m,y_m,w_tr_right_m,w_tr_left_m,psi,kappa,s,velocity,acceleration,time
-0.0058115556110680,0.1979031116406001,1.0980745558937344,0.8019254441062655,0.0713576825927804,0.0021609575863122,0.0000000000000000,8.0000000000000000,0.0000000000000000,0.0000000000000000
0.0939117829624982,0.2050312407089216,1.1052481910417600,0.7947518089582400,0.0711416348723866,0.0033144503995521,0.0937480054159456,8.0000000000000000,0.0000000000000000,0.0124972212413105
0.1936381921559945,0.2121162791059045,1.1123030874849684,0.7876969125150314,0.0706949398741363,0.0046139707555181,0.1934286599496904,8.0000000000000000,0.0000000000000000,0.0249944424697698
0.2933678589189465,0.2191553134933624,1.1193367285350941,0.7806632714649061,0.0702190458605196,0.0049060248009782,0.2931081115934704,8.0000000000000000,0.0000000000000000,0.0374916636845021
0.3931009661688303,0.2261454302773790,1.1263297433635766,0.7736702566364234,0.0697139530391455,0.0051980769376403,0.3927867893714482,8.0000000000000000,0.0000000000000000,0.0499888848846149
0.4928376925358108,0.2330837155961435,1.1332707246618148,0.7667292753381859,0.0691796615842861,0.0054901279041299,0.4924651229262196,8.0000000000000000,0.0000000000000000,0.0624861060692214
0.5925782121078979,0.2399672552980256,1.1401566999764514,0.7598433000235484,0.0686161715558706,0.0057821784066302,0.5921435418632204,8.0000000000000000,0.0000000000000000,0.0749833272374309
0.6923226941765490,0.2467931349145293,1.1469847236170991,0.7530152763829007,0.0680234829869786,0.0060742290290483,0.6918224750959545,8.0000000000000000,0.0000000000000000,0.0874805483883524
0.7920713029805742,0.2535584396571873,1.1537508508042420,0.7462491491957585,0.0674015958207963,0.0063662809493850,0.7915023501898808,8.0000000000000000,0.0000000000000000,0.0999777695210929
0.8918241974524420,0.2602602543793712,1.1604538381022085,0.7395461618977922,0.0667505098548682,0.0066583348918390,0.8911835927089666,8.0000000000000000,0.0000000000000000,0.1124749906347583
0.9915815309628082,0.2668956635635754,1.1670917159658540,0.7329082840341463,0.0660702248875857,0.0069503914426962,0.9908666255607390,8.0000000000000000,0.0000000000000000,0.1249722117284532
1.0913434510646853,0.2734617513140341,1.1736585786974665,0.7263414213025334,0.0653607405992749,0.0072424518256018,1.0905518683411748,8.0000000000000000,0.0000000000000000,0.1374694328012807
1.1911100992393988,0.2799556013219396,1.1801527820494415,0.7198472179505586,0.0646220565436653,0.0075345166154694,1.1902754463473824,8.0000000000000000,0.0000000000000000,0.1499666538523423
1.2908816106407066,0.2863742968580903,1.1865714103957028,0.7134285896042972,0.0638541722861383,0.0078265906779516,1.2899662018125220,8.0000000000000000,0.0000000000000000,0.1624638748807394
1.3906581138387435,0.2927149207674979,1.1929115288376893,0.7070884711623110,0.0630570864075224,0.0081186751617819,1.3896603193473867,8.0000000000000000,0.0000000000000000,0.1749610958855696
1.4904397305765067,0.2989745552651171,1.1991697706420705,0.7008302293579293,0.0622307982435162,0.0084107603081291,1.4893581989647413,8.0000000000000000,0.0000000000000000,0.1874583168659301
1.5902265754915843,0.3051502822795175,1.2053432591212090,0.6946567408787915,0.0613753083262929,0.0087028475990205,1.5890602341676232,8.0000000000000000,0.0000000000000000,0.1999555378209203
1.6900187558672073,0.3112391833387911,1.2114295133207400,0.6885704866792599,0.0604906156952245,0.0089949471255917,1.6887668113014869,8.0000000000000000,0.0000000000000000,0.2124527587496349
1.7898163713875455,0.3172383393796562,1.2174256448953926,0.6825743551046073,0.0595767188647189,0.0092870596225127,1.7884783089109353,8.0000000000000000,0.0000000000000000,0.2249499796511668
1.8896195138760346,0.3231448308286644,1.2233287684339851,0.6766712315660152,0.0586336167272596,0.0095791836212556,1.8881950970787662,8.0000000000000000,0.0000000000000000,0.2374472005246094
1.9894282670392502,0.3289557375937804,1.2291360164902438,0.6708639835097562,0.0576613080909076,0.0098713199385216,1.9879175367705491,8.0000000000000000,0.0000000000000000,0.2499444213690540
2.0892427062107757,0.3346681390556200,1.2348445449666561,0.6651554550333441,0.0566597916848555,0.0101634696974003,2.0876459791789883,8.0000000000000000,0.0000000000000000,0.2624416421835912
2.1890628980947873,0.3402791140625447,1.2404515399310849,0.6595484600689157,0.0556290660926091,0.0104556340979382,2.1873807650677328,8.0000000000000000,0.0000000000000000,0.2749388629673103
2.2888889005104094,0.3457857409110389,1.2459542265219576,0.6540457734780426,0.0545691298034181,0.0107478140570276,2.2871222241157052,8.0000000000000000,0.0000000000000000,0.2874360837192992
2.3887207621344455,0.3511850973536255,1.2513498807394470,0.6486501192605532,0.0534799812174638,0.0110400107729985,2.3868706742593675,8.0000000000000000,0.0000000000000000,0.2999333044386450
2.4885585222453819,0.3564742605829074,1.2566358451327178,0.6433641548672827,0.0523616185843960,0.0113322252328741,2.4866264210359610,8.0000000000000000,0.0000000000000000,0.3124305251244333
2.5884022104665134,0.3616503072299170,1.2618095499574031,0.6381904500425973,0.0512140401070484,0.0116244586249135,2.5864170673421265,8.0000000000000000,0.0000000000000000,0.3249277457757487
2.6882518465085452,0.3667103133716458,1.2668685419938819,0.6331314580061183,0.0500372437974850,0.0119167115548059,2.6861870621749651,8.0000000000000000,0.0000000000000000,0.3374249663916750
2.7881074399139023,0.3716513545035033,1.2718105225287266,0.6281894774712741,0.0488312277374414,0.0122089963632045,2.7859651191720851,8.0000000000000000,0.0000000000000000,0.3499221869712946
2.8879689897964349,0.3764705056017902,1.2766331625208764,0.6233668374791236,0.0475959874714134,0.0125013070894284,2.8857514890581348,8.0000000000000000,0.0000000000000000,0.3624194075136852
2.9878364846101015,0.3811648405784822,1.2813238565078826,0.6186761434921180,0.0463315222730205,0.0127936201906658,2.9855464069741782,8.0000000000000000,0.0000000000000000,0.3749166280179308
3.0877099018287684,0.3857314335983626,1.2858860088228579,0.6141139911771418,0.0450378323942864,0.0130859531810626,3.0853500917467791,8.0000000000000000,0.0000000000000000,0.3874138484831127
3.1875892077413956,0.3901673579875972,1.2903696713708694,0.6096303286291305,0.0437149136067942,0.0133783216514894,3.1851627452842433,8.0000000000000000,0.0000000000000000,0.3999110689083057
3.2874743571832168,0.3944696864637998,1.2947068999766167,0.6052931000233839,0.0423627630451002,0.0136707179700622,3.2849845519014620,8.0000000000000000,0.0000000000000000,0.4124082892925877
3.3873652932744553,0.3986354912149912,1.2988941145052328,0.6011058854947671,0.0409813780068380,0.0139631422776046,3.3848156776522624,8.0000000000000000,0.0000000000000000,0.4249055096350335
3.4872619471629340,0.4026618438934151,1.3028256216846203,0.5971743783153798,0.0395707555984186,0.0142555955632027,3.4846562696652938,8.0000000000000000,0.0000000000000000,0.4374027299347176
3.5871642377657573,0.4065458156271931,1.3066794696938113,0.5933205303061885,0.0381308929197157,0.0145480783893854,3.5845064554780861,8.0000000000000000,0.0000000000000000,0.4498999501907134
3.6870720715100660,0.4102844770545787,1.3104356999948914,0.5895643000051088,0.0366617869646730,0.0148405924209909,3.6843663423691773,8.0000000000000000,0.0000000000000000,0.4623971704020925
3.7869853420752539,0.4138748983193740,1.3140419153845548,0.5859580846154456,0.0351634345002840,0.0151331390234759,3.7842360166910320,8.0000000000000000,0.0000000000000000,0.4748943905679254
3.8869039301343209,0.4173141490846971,1.3174418221974891,0.5825581778025108,0.0336358322474752,0.0154257185682820,3.8841155432010641,8.0000000000000000,0.0000000000000000,0.4873916106872811
3.9868277030943959,0.4205992985683131,1.3207260003606187,0.5792739996393816,0.0320789768989818,0.0157183322230423,3.9840049643907203,8.0000000000000000,0.0000000000000000,0.4998888307592276
4.0867565148377336,0.4237274155638251,1.3241932269308723,0.5758067730691278,0.0304928649422691,0.0160109817003565,4.0839078988194029,8.0000000000000000,0.0000000000000000,0.5123860507828299
4.1866902054631794,0.4266955684445461,1.3271157589991818,0.5728842410008185,0.0288774927276421,0.0163036673742187,4.1838150780495500,8.0000000000000000,0.0000000000000000,0.5248832707571542
4.2866286010263384,0.4295008252023023,1.3296022580768887,0.5703977419231117,0.0272328566677977,0.0165963981234654,4.2837320983253218,8.0000000000000000,0.0000000000000000,0.5373804906812609
4.3865715132796126,0.4321402534952723,1.3321701314399201,0.5678298685600799,0.0255589513376828,0.0168891749570185,4.3836589090264644,8.0000000000000000,0.0000000000000000,0.5498777105542088
4.4865187394218511,0.4346109203111320,1.3344320984281486,0.5655679015718517,0.0238557729482680,0.0171819776295945,4.4835954339986452,8.0000000000000000,0.0000000000000000,0.5623749303750596
4.5864700618197674,0.4369098927134900,1.3369351542298848,0.5630648457701150,0.0221233201226696,0.0174748083740659,4.5835415708528675,8.0000000000000000,0.0000000000000000,0.5748721501428713
4.6864252477551132,0.4390342376645306,1.3390576292160272,0.5609423707839731,0.0203615886253976,0.0177676862891285,4.6834971902952480,8.0000000000000000,0.0000000000000000,0.5873693698566970
4.7863840491724901,0.4409810217222624,1.3409526423977323,0.5590473576022678,0.0185705732606929,0.0180606124039367,4.7834621354569711,8.0000000000000000,0.0000000000000000,0.5998665895155889
4.8863462024150248,0.4427473112470520,1.3426865127757843,0.5573134872242160,0.0167502695872945,0.0183535824544085,4.8834362212077371,8.0000000000000000,0.0000000000000000,0.6123638091185954
4.9863114279640666,0.4443301724462105,1.3443401307634424,0.5556598692365577,0.0149006732620844,0.0186465968871140,4.9834192334729739,8.0000000000000000,0.0000000000000000,0.6248610286647627
5.0862794301783536,0.4457266714539634,1.3457081588529136,0.5542918411470862,0.0130217797545218,0.0189396568602416,5.0834109285490410,8.0000000000000000,0.0000000000000000,0.6373582481531344
5.1862498970344832,0.4469338743236521,1.3468969543096649,0.5531030456903347,0.0111135844899173,0.0192327627587565,5.1834110324189790,8.0000000000000000,0.0000000000000000,0.6498554675827471
5.2862224998657812,0.4479488471411383,1.3479460308455236,0.5520539691544758,0.0091760828607672,0.0195259159238747,5.2834192400645970,8.0000000000000000,0.0000000000000000,0.6623526869526489
5.3861968931019755,0.4487686560241281,1.3487822200592217,0.5512177799407787,0.0072092700242199,0.0198165769641131,5.3834352147787374,8.0000000000000000,0.0000000000000000,0.6748499062618279
5.4861727140104826,0.4493903672000445,1.3494045305504181,0.5505954694495813,0.0052136491380785,0.0200810028723466,5.4834585874773287,8.0000000000000000,0.0000000000000000,0.6873471255094722
5.5861495820578018,0.4498111486343020,1.3498117292245653,0.5501882707754350,0.0031939629034805,0.0202559454514726,5.5834889550957083,8.0000000000000000,0.0000000000000000,0.6998443447011354
5.6861270979180931,0.4500290162563398,1.3499978404181026,0.5500021595818975,0.0011633613000579,0.0203545303687799,5.6834943324165659,8.0000000000000000,0.0000000000000000,0.7123415638567463
5.7861048498805889,0.4500437689595733,1.3499999999999999,0.5500000000000000,-0.0008760375218229,0.0206375360004715,5.7835349813745260,8.0000000000000000,0.0000000000000000,0.7248387829881150
5.8860824218267274,0.4498538478450971,1.3498249658986656,0.5501750341013346,-0.0029632276408698,0.0213566179277016,5.8835812234971794,8.0000000000000000,0.0000000000000000,0.7373360020301878
5.9860593619299953,0.4494512564883225,1.3492564539116187,0.5507435460883812,-0.0051464108024155,0.0224075137230720,5.9836325488659901,8.0000000000000000,0.0000000000000000,0.7498332208659260
6.0860351479166885,0.4488247998905942,1.3487795897678918,0.5512204102321082,-0.0074437332369603,0.0235598302688965,6.0836883702359623,8.0000000000000000,0.0000000000000000,0.7623304394511790
6.1860091788458886,0.4479628558999756,1.3479411456322636,0.5520588543677365,-0.0098573283317049,0.0247225560264550,6.1837479986778359,8.0000000000000000,0.0000000000000000,0.7748276577714666
6.2859807716583154,0.4468538063900148,1.3467890079652662,0.5532109920347335,-0.0123871440632133,0.0258794126749691,6.2838106365372033,8.0000000000000000,0.0000000000000000,0.7873248758120629
6.3859491572404350,0.4454860439005283,1.3454372286312579,0.5545627713687422,-0.0150320588782424,0.0269876410586193,6.3838753720501824,8.0000000000000000,0.0000000000000000,0.7998220935587524
6.4859134797662010,0.4438481797600430,1.3436921780081350,0.5563078219918649,-0.0177834708224200,0.0279298192422385,6.4839411765155672,8.0000000000000000,0.0000000000000000,0.8123193109846550
6.5858728206306791,0.4419303324245878,1.3417262603666842,0.5582737396333164,-0.0206167792004048,0.0286218568876118,6.5840069227320894,8.0000000000000000,0.0000000000000000,0.8248165281526783
6.6858262539801316,0.4397260381772463,1.3396637343310083,0.5603362656689914,-0.0235065677723574,0.0291393250752673,6.6840720441242150,8.0000000000000000,0.0000000000000000,0.8373137451875526
6.7857728390391596,0.4372305034184373,1.3371624057226694,0.5628375942773308,-0.0264433466877574,0.0296037722413012,6.7841397039486209,8.0000000000000000,0.0000000000000000,0.8498109621019138
6.8857115992193130,0.4344391683555656,1.3343858333035554,0.5656141666964445,-0.0294260039505767,0.0300630927899731,6.8842095766797504,8.0000000000000000,0.0000000000000000,0.8623081788781726
6.9856415171769237,0.4313474687882173,1.3312584190112213,0.5687415809887786,-0.0324546264543724,0.0305233278392858,6.9842801433991673,8.0000000000000000,0.0000000000000000,0.8748053955115559
7.0855615339599591,0.4279508351568505,1.3277665186428553,0.5722334813571448,-0.0355293101607301,0.0309854573157968,7.0843497811444314,8.0000000000000000,0.0000000000000000,0.8873026119978553
7.1854705482487002,0.4242446922255070,1.3241787403063223,0.5758212596936778,-0.0386503379048539,0.0314581018899887,7.1844167607385980,8.0000000000000000,0.0000000000000000,0.8997998283326383
7.2853674141548224,0.4202244226251627,1.3201543401965756,0.5798456598034244,-0.0418195293988335,0.0319660969033229,7.2844792432649488,8.0000000000000000,0.0000000000000000,0.9122970445136056
7.3852509280642433,0.4158850968999274,1.3158254950609771,0.5841745049390230,-0.0450421334343925,0.0325275362027918,7.3845352656716052,8.0000000000000000,0.0000000000000000,0.9247942605152317
7.4851198046679990,0.4112210593183234,1.3111868348092870,0.5888131651907136,-0.0483235876786843,0.0331263986628631,7.4844934892165886,8.0000000000000000,0.0000000000000000,0.9372914763055705
7.5849726857069033,0.4062263055586683,1.3062051076525172,0.5937948923474831,-0.0516659374165860,0.0337371157862629,7.5845264724699613,8.0000000000000000,0.0000000000000000,0.9497886918810055
7.6848081500910341,0.4008947839118853,1.3008747097912494,0.5991252902087507,-0.0550695077624601,0.0343500287055667,7.6845464818002043,8.0000000000000000,0.0000000000000000,0.9622859072407524
7.7846247144760516,0.3952204387106983,1.2951920016213962,0.6048079983786038,-0.0585344126575347,0.0349649484458279,7.7845510047622266,8.0000000000000000,0.0000000000000000,0.9747831223799660
7.8844208320159757,0.3891972100525752,1.2891691491077628,0.6108308508922372,-0.0620609394285270,0.0355855949325979,7.8845373894650290,8.0000000000000000,0.0000000000000000,0.9872803372943919
7.9841948889134979,0.3828190004848453,1.2827491091126937,0.6172508908873069,-0.0656499458349402,0.0362150077831714,7.9845028397156108,8.0000000000000000,0.0000000000000000,0.9997775519759969
8.0839451972948648,0.3760795955928021,1.2759856779836634,0.6240143220163367,-0.0693023269899038,0.0368505009697578,8.0844444062996992,8.0000000000000000,0.0000000000000000,1.0122747664159211
8.1836699974738192,0.3689727371819287,1.2688906523725978,0.6311093476274021,-0.0730184035678658,0.0374881247306948,8.1843589879573084,8.0000000000000000,0.0000000000000000,1.0247719806099953
8.2833674591326947,0.3614921659736067,1.2614559998567103,0.6385440001432903,-0.0767982809067385,0.0381267746574134,8.2842433314686765,8.0000000000000000,0.0000000000000000,1.0372691945537771
8.3830356800681436,0.3536316231138834,1.2536123292787906,0.6463876707212097,-0.0806420588480861,0.0387664083747838,8.3840940293393320,8.0000000000000000,0.0000000000000000,1.0497664082422902
8.4826726849033900,0.3453848510310399,1.2453673096177187,0.6546326903822813,-0.0845498342563884,0.0394069949375768,8.4839075175345648,8.0000000000000000,0.0000000000000000,1.0622636216706443
8.5822764238126670,0.3367455944898209,1.2367287236938762,0.6632712763061236,-0.0885217007853976,0.0400485026561323,8.5836800733133884,8.0000000000000000,0.0000000000000000,1.0747608348339186
8.6818447712424653,0.3277076015451154,1.2276877508854611,0.6723122491145390,-0.0925577489628981,0.0406908967219153,8.6834078131473778,8.0000000000000000,0.0000000000000000,1.0872580477271809
8.7813755246481691,0.3182646246290992,1.2181679760465831,0.6818320239534169,-0.0966580654823175,0.0413341395176694,8.7830866907461989,8.0000000000000000,0.0000000000000000,1.0997552603454908
8.8808664032419369,0.3084104216966245,1.2082853302837251,0.6917146697162752,-0.1008227333494960,0.0419781918657548,8.8827124951873646,8.0000000000000000,0.0000000000000000,1.1122524726838949
8.9803150467436765,0.2981387573343489,1.1980744214498609,0.7019255785501394,-0.1050518314239093,0.0426230113131316,8.9822808491431729,8.0000000000000000,0.0000000000000000,1.1247496847374312
9.0797190141573072,0.2874434040492286,1.1873798866241685,0.7126201133758322,-0.1093454342225122,0.0432685499885766,9.0816816738616701,8.0000000000000000,0.0000000000000000,1.1372468965011255
9.1790757825472298,0.2763181434690674,1.1762662730405289,0.7237337269594711,-0.1137036110325034,0.0439147604038718,9.1811238473862211,8.0000000000000000,0.0000000000000000,1.1497441079700050
9.2783827458595276,0.2647567678601029,1.1646837622175052,0.7353162377824950,-0.1181264268751425,0.0445617123957327,9.2804949734944948,8.0000000000000000,0.0000000000000000,1.1622413191390779
9.3776372137026804,0.2527530811895128,1.1526655365700995,0.7473344634299005,-0.1226139650016396,0.0452093855406982,9.3797900124804166,8.0000000000000000,0.0000000000000000,1.1747385300032276
9.4768364096397146,0.2403008962334234,1.1402052756483114,0.7597947243516886,-0.1271662863493002,0.0458573332226631,9.4790037502881876,8.0000000000000000,0.0000000000000000,1.1872357405574465
9.5759774709616590,0.2273940437436006,1.1273758500583839,0.7726241499416159,-0.1317833848659857,0.0465053731679912,9.5781307984266313,8.0000000000000000,0.0000000000000000,1.1997329507969081
9.6750574482272285,0.2140263784608405,1.1139564506432271,0.7860435493567731,-0.1364652850423311,0.0471538769693256,9.6771655937483896,8.0000000000000000,0.0000000000000000,1.2122301607168122
9.7740733026654194,0.2001917689831596,1.1000735291733097,0.7999264708266901,-0.1412120551276006,0.0478029516448256,9.7761023959570483,8.0000000000000000,0.0000000000000000,1.2247273703113108
9.8730219053163975,0.1858841012256804,1.0857214902132062,0.8142785097867936,-0.1460237410115701,0.0484523818033671,9.8749352871277605,8.0000000000000000,0.0000000000000000,1.2372245795768075
9.9719000361056729,0.1710972814645215,1.0708695896474913,0.8291304103525088,-0.1509003678746033,0.0491181295232206,9.9736575881030376,8.0000000000000000,0.0000000000000000,1.2497217885070986
10.0707043829676746,0.1558252395295082,1.0555983843500891,0.8444016156499111,-0.1558451733038571,0.0498251461509740,10.0722006414592133,8.0000000000000000,0.0000000000000000,1.2622189970852244
10.1694314391526621,0.1400612934960374,1.0397127108677551,0.8602872891322453,-0.1608631716257007,0.0505666211365369,10.1706298045531103,8.0000000000000000,0.0000000000000000,1.2747162052843959
10.2680775365630517,0.1237984382145387,1.0233523615066409,0.8766476384933595,-0.1659562386230893,0.0513180411249141,10.2689104419033317,8.0000000000000000,0.0000000000000000,1.2872134130951725
