# x_m,y_m,w_tr_right_m,w_tr_left_m,psi,kappa,s,velocity,acceleration,time
-0.2532489917621445,-0.5179561165759777,0.4843646121649426,1.1975390711653486,0.3478637073341082,-0.5648829461773974,18.2526292100577407,3.1602852529092935,-0.9351172593573646,0.0000000000000000
-0.1837187811881865,-0.4927438063532557,0.4843646121649426,1.1975390711653486,0.3060848532423441,-0.7680801421854686,18.3110068996090405,3.1383243882603380,0.0000000000000000,0.0234846105439735
-0.1084395460752901,-0.4721940131390657,0.4828412517255871,1.1990624316047040,0.2311202185554990,-0.8630247728098784,0.0534291225922541,3.1383243882603380,0.0000000000000000,0.0483493738149053
-0.0277387655840161,-0.4560377615628520,0.4784699331106264,1.2034337502196648,0.1677110669089297,-0.6927621252385180,0.1378632692251574,3.1383243882603380,1.6769304311446396,0.0745742374082181
0.0580560811250761,-0.4440060762540590,0.4718874336677376,1.2096407565061766,0.1140873980562469,-0.5576866857598739,0.2285332620594901,3.1842800833123457,2.8452579693611146,0.1019788895026042
0.1486175148914265,-0.4358299818421314,0.4690648424957458,1.1999058626631793,0.0686859040434793,-0.4509817259015081,0.3231781677815562,3.2645178686654637,3.6938530598821075,0.1301794204270936
0.2436180565544752,-0.4312405029565136,0.4744613107007753,1.1548836259116948,0.0301862621317992,-0.3664991005381936,0.4195715504772227,3.3704200797150050,4.3366686178566720,0.1588492698587657
0.3427302269536618,-0.4299686642266502,0.4766953283543158,1.1233070041772666,-0.0024998269757135,-0.2991802908665659,0.5219703111763231,3.4956309253212869,4.8441857131201447,0.1877218576997443
0.4456265469284268,-0.4317454902819853,0.4769354499372236,1.1264288366626425,-0.0302577275312872,-0.2450438753707429,0.6280676243129598,3.6354479714007555,5.2613820435277425,0.2165847160539943
0.5519795373182104,-0.4363020057519638,0.4841005628685582,1.1055608866022022,-0.0538027552076343,-0.2010216146776232,0.7376965976754528,3.7863750497047710,5.6180262788119100,0.2452705398651881
0.6614617189624521,-0.4433692352660298,0.5001222906382107,1.0900254842733432,-0.0737106799945468,-0.1647679726960023,0.8506581068446230,3.9458007858237374,5.9346707790443425,0.2736480746446590
0.7737456127005923,-0.4526782034536281,0.5135131735232892,1.0924753248566790,-0.0904437186142921,-0.1344898166860707,0.9641202923027615,4.1117699426505343,6.2262274635026849,0.3016141005635429
0.8885037393720715,-0.4639599349442031,0.5321396655100781,1.0863752205723165,-0.1043717297014406,-0.1088085373163689,1.0829439022469509,4.2828216544219870,6.5041727317448421,0.3290868700333599
1.0054086198163286,-0.4769454543671992,0.5595986632601874,1.0793559394484789,-0.1157890580862830,-0.0866533624864927,1.2043487800731247,4.4578754198484472,6.7779677735891113,0.3560009408377955
1.1241327748728047,-0.4913657863520609,0.5672377644877354,1.0729421634899867,-0.1249276898552105,-0.0671804358596084,1.3280476223880033,4.6361512522500998,7.0560305348991781,0.3823031951943769
1.2443487253809391,-0.5069519555282325,0.5983589801748187,1.0762135540150504,-0.1319673717569017,-0.0497117316815407,1.4537358674884213,4.8171145362387353,7.3464595260854617,0.4079498081297362
1.3657289921801725,-0.5234349865251587,0.6254935100840830,1.0750912446851018,-0.1370432565543531,-0.0336886358352287,1.5810928241365194,5.0004391453287464,7.6576361555518888,0.4329039521550413
1.4879460961099447,-0.5405459039722841,0.6410140269505040,1.0441637432906112,-0.1402515223984431,-0.0186360401442738,1.7097824237816919,5.1859845252198049,7.9987942204423366,0.4571340639182564
1.6106725580096950,-0.5580157324990527,0.6352339179225085,1.0331028631902612,-0.1416533043665504,-0.0041337075438196,1.8394536708184088,5.3737840008703293,8.3806286351658539,0.4806125371074490
1.7335808987188650,-0.5755754967349094,0.6357911903500985,1.0066674830994107,-0.1412771778995212,0.0101916539178656,1.9697408473101006,5.5640427242000063,8.1844809541253909,0.5033147390080719
1.8563436390768935,-0.5929562213092985,0.6363391389416710,1.0422838650396120,-0.1391243128054043,0.0227191385089403,2.1002635155467893,5.7435276764534722,7.7505385558953366,0.5252446516390000
1.9786339655044380,-0.6098900148614435,0.6439426808115435,1.0366678525719131,-0.1356554587644561,0.0277854043516100,2.2306270994286028,5.9077770407699655,7.5302385529685605,0.5464366453478191
2.1002067428766424,-0.6262420129867408,0.6628334279300728,1.0475112624783065,-0.1322856374107786,0.0227601427925272,2.3605156044182367,6.0621169079149126,7.6635815628971251,0.5669326583305822
2.2209760863575099,-0.6421367168786485,0.6740452932896025,1.0394460714840963,-0.1300910961270676,0.0126802313986822,2.4897923315477293,6.2141995235189977,-0.8497761870739385,0.5867775068985658
2.3408744945798685,-0.6577285682690087,0.6888877293010681,1.0161559962059930,-0.1292079071470504,0.0017667799172462,2.6145020234267875,6.1976436096570229,-8.1506317654124132,0.6062601825887171
2.4598344661765466,-0.6731720088896636,0.7003386129902589,0.9619650041303814,-0.1296655386012346,-0.0095834647828164,2.7421860116104502,6.0378237590118422,-7.7582940807649052,0.6258684602345534
2.5777884997803735,-0.6886214804724560,0.7011208201158885,0.9813219176183935,-0.1314975859455978,-0.0214307408625685,2.8689702901482947,5.8829787547862544,-7.3877624971623357,0.6458271009632536
2.6946690940241762,-0.7042314247492277,0.7006170738319542,0.9755851441782425,-0.1347420500202525,-0.0338404173994494,2.9947746671638646,5.7329864032899565,-7.0361803342940394,0.6661299127488125
2.8104087475407828,-0.7201562834518210,0.7055169168029515,0.9725172218067317,-0.1394415718540392,-0.0468826488644346,3.1195278022800106,5.5877596603393638,-6.7009032741298116,0.6867699100272739
2.9249399589630243,-0.7365504983120785,0.7111250896751562,0.9737785787963475,-0.1456436111944150,-0.0606318131884383,3.2431672791510366,5.4472458742341718,-6.3794837159800997,0.7077392898790431
3.0381952269237265,-0.7535685110618424,0.7133799739966672,0.9728986492746613,-0.1534005508411420,-0.0751656399807601,3.3656398009226125,5.3114258900891747,-6.0696592951937580,0.7290294114926118
3.1501070500557207,-0.7713647634329550,0.7195480618094960,0.9653259622996273,-0.1627697029112356,-0.0905639113355915,3.4827803951533660,5.1803129271326300,-5.7693467759278096,0.7506307826042269
3.2606079269918307,-0.7900936971572584,0.7399416392111983,0.9950965105171850,-0.1738131860752599,-0.1069065904437284,3.6027631897857453,5.0539511057225841,-5.4766428351430161,0.7725330579081281
3.3696303563648895,-0.8099097539665951,0.7382094542283778,0.9926181913030673,-0.1865976345712048,-0.1242712044432559,3.7214776602637283,4.9324134580595027,-5.1898336567334367,0.7947250560576491
3.4771068368077236,-0.8309673755928074,0.7493029194565589,1.0002548630016646,-0.2011936905532230,-0.1427292807501008,3.8389104178453279,4.8157992045910456,-4.9074157435840355,0.8171948038726217
3.5829698669531611,-0.8534210037677376,0.7564473366288615,0.9812744436754985,-0.2176752214361821,-0.1623416161049300,3.9550597434173467,4.7042300160772825,-4.6281309026876221,0.8399296187616249
3.6871519454340298,-0.8774250802232276,0.7487845489050297,1.0023423753657759,-0.2361181940867891,-0.1831521537806151,4.0699364156262634,4.5978449093653886,-4.3510188980903131,0.8629162431568239
3.7895855708831605,-0.9031340466911203,0.7396126274135443,0.9675253524025066,-0.2565991292511642,-0.2051802702752148,4.1793063393250662,4.4967933450534954,-4.0754916708131956,0.8861410478930767
3.8902032419333792,-0.9307023449032575,0.7264301817124221,0.9489068634040146,-0.2791930544794172,-0.2284113469459847,4.2916820977664294,4.4012260122616222,-3.8014330736659123,0.9095903248174494
3.9889374572175145,-0.9602844165914816,0.7022452403300911,0.9606041777885332,-0.3039708748912084,-0.2527856477941861,4.4028957644430253,4.3112827088888661,-3.5300932587843596,0.9332506922709317
4.0857207153683959,-0.9920347034876351,0.6844302357168247,0.9599766321709734,-0.3309960923094999,-0.2781453355420792,4.5130165862023368,4.2270582159108026,-3.2800173521565843,0.9571096916807851
4.1804855150188542,-1.0261076473235606,0.6637085787549565,1.0147169020479576,-0.3603126393382245,-0.3033568807007310,4.6221315207476810,4.1481801089400134,-3.0795457774552135,0.9811577678042021
4.2731624599729283,-1.0626552228440844,0.6329141574834776,1.0409134969248175,-0.3917667209805973,-0.3266551729870931,4.7303436258924689,4.0735501789826873,-2.9183095076174226,1.0053918384595819
4.3636379853405192,-1.1017718990204897,0.6105693966012398,1.0503207759729354,-0.4250532248209389,-0.3484527838824761,4.8331665316623038,4.0023116791133573,-2.7584117476422119,1.0298027173205739
4.4517540285872812,-1.1434942107713928,0.5810348640409219,1.1096830195517691,-0.4600857670341334,-0.3708883354082382,4.9395921165895462,3.9345442584455879,-2.5824601633776880,1.0543702680952887
4.5373505665589331,-1.1878561403710914,0.5501330862133916,1.1447831331652591,-0.4969698934124054,-0.3949583771088310,5.0451820311271618,3.8707482871879213,-2.3896162706440665,1.0790738326119338
4.6202675761011909,-1.2348916700938835,0.5301504038173590,1.1830082192615414,-0.5358143077881761,-0.4206198241113295,5.1499711182022123,3.8114425110192562,-2.1800854539800172,1.1038919496030273
4.7003450340597741,-1.2846347822140671,0.5122979310956667,1.2318745969499751,-0.5767187625104242,-0.4477108801566593,5.2540124721133896,3.7571348136793747,-1.9546534913126110,1.1288027608928948
4.7774229172803988,-1.3371194590059399,0.4610815309674003,1.2808252276878036,-0.6197691074083784,-0.4759726712976570,5.3573788185644498,3.7083038546758349,-1.7149431692908619,1.1537846613783604
4.8513412026087845,-1.3923796827438002,0.4178238053232748,1.3468258411711072,-0.6650313487635735,-0.5050295380052769,5.4601637806030432,3.6653745066814465,-1.4637277531279940,1.1788171806846066
4.9219398668906482,-1.4504494357019460,0.3633508101985348,1.4314474737902292,-0.7125447990062597,-0.5343721269172996,5.5624829545629746,3.6286862482551236,-1.2052910480916654,1.2038821275969813
4.9890588869717067,-1.5113627001546746,0.3165361736273244,1.5308592266809957,-0.7623145446841129,-0.5633470730475508,5.6644747051632427,3.5984540660244582,-0.9458059540551452,1.2289650171434789
5.0525382396976806,-1.5751534583762852,0.3303658163598361,1.6392154906922500,-0.8143036505849541,-0.5911579846801048,5.7662988159695105,3.5747221246984289,-0.6936786831030689,1.2540567827686355
5.1122179019142839,-1.6418556926410748,0.3647737210519756,1.7430815866680072,-0.8684257361922634,-0.6168827551962790,5.8681306108046485,3.5573115035359328,-0.4597769795373617,1.2791557537858971
5.1679378504672373,-1.7115033852233412,0.3962454832852799,1.8349563548718877,-0.9245387725792740,-0.6395114010852265,5.9701651977701715,3.5457646178858475,-0.2574351554797544,1.3042698551088996
5.2195380622022585,-1.7841305183973837,0.3763916687652444,1.8702815792112226,-0.9824410989069312,-0.6580062034757689,6.0726186129984505,3.5392903518707683,-0.1021191157573363,1.3294189688848068
5.2668585139650634,-1.8597710744374993,0.4184148283526947,1.8052819983166861,-1.0418706799097817,-0.6713818010219178,6.1829602367069230,3.5367150684729505,-0.0106562529492075,1.3546373952168314
5.3097391826013718,-1.9384590356179852,0.4311019815974291,1.7242275986088149,-1.1025084554598439,-0.6787975882324175,6.2872751071770718,3.5364450499293314,0.0000000000000000,1.3799763717694813
5.3480200449568995,-2.0202283842131412,0.4696079994653461,1.6191864368404398,-1.1639862384550379,-0.6796496492417341,6.3927624214033107,3.5364450499293314,0.0000000000000000,1.4055066688847955
5.3815410778773662,-2.1051131024972642,0.5111210301708087,1.5124933521709334,-1.2258990254413753,-0.6736463770304522,6.5078529810850423,3.5364450499293314,0.0750795852728670,1.4313133094658512
5.4101422582084870,-2.1931471727446508,0.5216820203469440,1.4389364918555825,-1.2878208959662842,-0.6608526014015503,6.6167673198852093,3.5384096524597703,0.2258988448327972,1.4574802431709171
5.4336635627959824,-2.2843645772296020,0.5381004895284338,1.3819271915209947,-1.3493230492008177,-0.6409381344019435,6.7363077343754760,3.5444185354594846,0.4479565458521390,1.4840801268673647
5.4519449684855701,-2.3787992982264141,0.5621554133880324,1.2795563273912804,-1.4098485798343785,-0.6084608088471274,6.8496705800578761,3.5565543464979910,0.8035312702589233,1.5111716185552930
5.4648490780933354,-2.4764503400314872,0.5798012723698569,1.2601987276301432,-1.4677830265981826,-0.5606929427050282,6.9744247030171653,3.5787392213820279,1.3189955511202713,1.5387808426205722
5.4724359846046049,-2.5770114026090241,0.5908440678614674,1.2496779876340669,-1.5216209326602010,-0.5082965749812056,7.1017135187439777,3.6157167373397638,1.8548317318721674,1.5668154451075400
5.4748677054773713,-2.6800186186722197,0.5957121775973870,1.2468780453979709,-1.5714159411445614,-0.4623310768628662,7.2310855781905490,3.6681924833444688,2.2790412743862682,1.5951068232972687
5.4723071076504510,-2.7850068077034811,0.6075371781018946,1.2606832441956917,-1.6178113752665375,-0.4248720349135607,7.3620225246673394,3.7328706427244627,2.5796957318687879,1.6234863704809464
5.4649170580626505,-2.8915107891852143,0.6308570859310501,1.2251274194544159,-1.6613951165392677,-0.3948505063651327,7.4939794768164418,3.8059348640594091,2.7805350614206406,1.6518091763189888
5.4528604236527798,-2.9990653825998250,0.6560724074367628,1.2698500024085035,-1.7026996172376956,-0.3713416771227807,7.6184528803342220,3.8841994089799208,2.8975662424484652,1.6799564728614480
5.4363000713596517,-3.1072054074297184,0.6841340755223232,1.2550934410497820,-1.7422098089758498,-0.3536040983258716,7.7512403245216088,3.9649711880117602,2.9409912001376921,1.7078322045180905
5.4153988681220708,-3.2154656831573010,0.6852535393799197,1.2255135213392963,-1.7803723438514467,-0.3410779584497395,7.8835539468502338,4.0459289045102764,2.9167104771640648,1.7353595621296081
5.3903196808788501,-3.3233810292649792,0.6805177315033374,1.1864367844882777,-1.8176053116219038,-0.3333775964987563,8.0149565746644154,4.1250251325021221,-2.0356841241408348,1.7624778615326915
5.3612253765687976,-3.4304862652351571,0.6665055660450788,1.1915601691729671,-1.8543080671776906,-0.3302845090227676,8.1386522291510577,4.0698851709253701,-3.0135807238845214,1.7895645597698377
5.3282788221307253,-3.5363162105502428,0.6490940906484894,1.2008344328927729,-1.8908710998737082,-0.3317443566026143,8.2675341550364596,3.9869682925616914,-3.2153710714198152,1.8170789640486116
5.2916428845034416,-3.6404056846926407,0.6300290769303448,1.1856906706896670,-1.9276860534566422,-0.3378700272885607,8.3888106754274290,3.8969594378152475,-3.3619215905836004,1.8450722664535806
5.2514804306257572,-3.7422895071447564,0.6061092148367522,1.2100893893950673,-1.9651561085072125,-0.3489521069162425,8.5139087435263043,3.8013073133499509,-3.4548173648664640,1.8735238891009405
5.2079543274364823,-3.8415024973889977,0.5704880756285484,1.2177043633436839,-2.0037069927780724,-0.3654777350184806,8.6315709607376547,3.7015323330501944,-3.4694644214414256,1.9024038470733680
5.1612274418744244,-3.9375794749077686,0.5411055549333976,1.2557156369074072,-2.0437988939275211,-0.3881584333624691,8.7518783840043550,3.6000008165983401,-3.3798542857454810,1.9316681668987523
5.1114626408783943,-4.0300552591834746,0.5173280289091503,1.3136884065618546,-2.0859394991529996,-0.4179666408548638,8.8649411798930409,3.5000185809901136,-3.2134148646872931,1.9612499852717813
5.0588227913872021,-4.1184646696985237,0.4786689966481589,1.3507290085901607,-2.1306982352937727,-0.4561786674691719,8.9755255148534232,3.4042396764305360,-2.9538558436352842,1.9910559420475797
5.0034707603396580,-4.2023425259353182,0.4297583011752376,1.4208891405083719,-2.1787214477848522,-0.5044173514098601,9.0834457964695314,3.3158934595388754,-2.5759363153654182,2.0209647194451028
4.9455694146745710,-4.2812236473762697,0.3660238147580651,1.4841945819010887,-2.2307475886620534,-0.5646787178403084,9.1923968598495147,3.2389865854002968,-2.0612595449318221,2.0508206105553879
4.8852816213307495,-4.3546428535037789,0.3062223365891651,1.5563153878171394,-2.2876202360814082,-0.6375372545853140,9.2944703805070787,3.1779545046168387,-1.4842408521515960,2.0804297303450441
4.8227702472470062,-4.4221349638002527,0.3047182689018271,1.6358069893838636,-2.3499630870363801,-0.7139767659041411,9.3936120050449681,3.1346950345875548,-0.9890562292232257,2.1095755862663212
4.7581813416096708,-4.4833371127539481,0.3359854902891540,1.7295868311190083,-2.4168312725639032,-0.7783118948920068,9.4899047735077140,3.1064933013762417,-0.6094341944810615,2.1380893677663497
4.6915937392884830,-4.5382953499685419,0.3597064427352907,1.8104941286892413,-2.4864154245079404,-0.8266643955679828,9.5837913382900908,3.0895089422103190,-0.3069789849202670,2.1659584294628056
4.6230694857354138,-4.5871578676722491,0.3542703614602831,1.7912227040703517,-2.5577772643149603,-0.8630233818610632,9.6718354547034320,3.0811351841508721,-0.0938990170081214,2.1932363816054314
4.5526706264024339,-4.6300728580932855,0.3750247953672021,1.6965435669231730,-2.6302032389368386,-0.8869150062179606,9.7622863844203742,3.0786215136651913,0.0000000000000000,2.2200063155810317
4.4804592067415170,-4.6671885134598590,0.4034279553713553,1.6014955504004422,-2.7029117239571354,-0.8968221495442268,9.8519101089717847,3.0786215136651913,0.0000000000000000,2.2463789982356266
4.4064972722046383,-4.6986530260001871,0.4324892322145621,1.4968423869122731,-2.7751010160321137,-0.8923097653046786,9.9412972692846058,3.0786215136651913,0.0427679736229209,2.2724869525042997
4.3308468682437633,-4.7246145879424821,0.4581625134312747,1.4038427341804314,-2.8460004405872232,-0.8740752666706448,10.0310588979736259,3.0797324054012662,0.2096131382385677,2.2984618033557687
4.2535700403108700,-4.7452213915149564,0.4721048861439842,1.3022043984287959,-2.9149166421612471,-0.8437988213917257,10.1217982606946180,3.0851710199068143,0.4684863669387265,2.3244077652895010
4.1747288338579311,-4.7606216289458265,0.4791825573146501,1.2128487329435924,-2.9812684659406488,-0.8038433897533412,10.2140771097561007,3.0973453754198483,0.7882895547709728,2.3503943390132704
4.0943852943369139,-4.7709634924633013,0.4904454068927142,1.1768136423742372,-3.0446068208679553,-0.7568913204043187,10.3084075033012841,3.1178937423524435,1.1420616315866658,2.3764613683278544
4.0126014671997936,-4.7763951742955948,0.5017460407473046,1.0982539592526956,-3.1046193560252617,-0.7056051941526349,10.4138209416278507,3.1477733830859886,1.5085269712523641,2.4026242652391478
3.9294393978985438,-4.7770648666709246,0.5049071164311736,1.0950928835688265,3.1220627704231951,-0.6523729066783605,10.5141910409477148,3.1873797789998646,1.8722893098385069,2.4288792786851423
3.8449611318851344,-4.7731207618175002,0.5018856899353545,1.0979543289419877,3.0691401474540614,-0.5991591946279634,10.6275308580033769,3.2366757549987062,2.2231663700880322,2.4552085301206983
3.7592287146115382,-4.7647110519635341,0.4918848419230328,1.0776782991824936,3.0197777989961381,-0.5474545949249817,10.7340194556552522,3.2953140005617216,2.5551388946359164,2.4815845343424128
3.6723041915297294,-4.7519839293372419,0.4953026489010071,1.0761184532558035,2.9738856741061355,-0.4982958540722502,10.8534831866317063,3.3627427721530916,2.8652510726964056,2.5079740084069835
3.5842496080916786,-4.7350875861668369,0.4908933934846071,1.0769387570048101,2.9313241485301766,-0.4523282161563793,10.9743807334289798,3.4382904969573196,3.1526475038648250,2.5343408861735215
3.4951270097493556,-4.7141702146805304,0.4782950112723104,1.0795725325890222,2.8919213637713344,-0.4098847660305397,11.0951781319122027,3.5212293136569279,3.4178158818902404,2.5606485582484786
3.4049984419547386,-4.6893800071065392,0.4832375795653989,1.0954573570311403,2.8554872207641244,-0.3710658624426887,11.2145480246013474,3.6108200711159584,3.6620352756542127,2.5868614265114354
