# x_m,y_m,w_tr_right_m,w_tr_left_m,psi,kappa,s,velocity,acceleration,time
-0.2483613323150903,-0.1922516130744621,0.7910362453975064,0.8908674379327848,0.4117768075864876,-0.2959868309235848,0.0000000000000000,3.9604640732478016,-1.8425510556787430,0.0000000000000000
-0.1571671925126641,-0.1524230017123952,0.8053114563101210,0.8765922252341981,0.3823224898144428,-0.4346001000071572,0.0871153129422689,3.9138935658512852,0.0000000000000000,0.0252750159910012
-0.0637846202393404,-0.1180317990862645,0.8162854182038607,0.8656153826715257,0.3252799249649680,-0.5548823402110911,0.1815859753612900,3.9138935658512852,0.0000000000000000,0.0507008779951457
0.0313540661052437,-0.0888424179044092,0.8269692822823255,0.8540584814062310,0.2718843167903875,-0.5189942010422065,0.2764181489108820,3.9138935658512852,0.5497547152419207,0.0761271636172625
0.1278734127350155,-0.0645998694934421,0.8461878483501007,0.8104638158497651,0.2219829326055400,-0.4845018952947582,0.3736766346122872,3.9278471218759350,1.0251129897089835,0.1015085848907653
0.2254497913353386,-0.0450345394494507,0.8649961576580812,0.7490961563010303,0.1754510643081686,-0.4511459830819118,0.4690094451931686,3.9537347701314016,1.4476775864652720,0.1267620433049600
0.3238068346263939,-0.0298660034427323,0.8798365889864754,0.7221286994245804,0.1321875536326547,-0.4187083955028690,0.5645705396456417,3.9900079984011891,1.8340937477261319,0.1518181943491675
0.4227112752862267,-0.0188060801105620,0.8931902841966440,0.7117902226445934,0.0921110466871278,-0.3870058619769117,0.6621571742831354,4.0354956525853209,2.1975223986785459,0.1766193552715720
0.5219691228658307,-0.0115612698522818,0.9120405040864312,0.6657117758876249,0.0551568237310358,-0.3558846993721909,0.7579691751958659,4.0893310392802640,2.5486724373669798,0.2011175750518647
0.6214221203926782,-0.0078346928031842,0.9343355657778251,0.6566441551953913,0.0212740881577147,-0.3252166208801257,0.8539449023292426,4.1508951253522826,2.8965402762810668,0.2252729294902798
0.7209444296355537,-0.0073276129164628,0.9533365375847744,0.6519785951700223,-0.0095763715614536,-0.2948953068432202,0.9515433440443389,4.2197723373979157,3.2489530355103247,0.2490520609629711
0.8204395010481306,-0.0097406154499652,0.9746522397380531,0.6395947152125631,-0.0374242118876282,-0.2648335459063354,1.0477116552735293,4.2957162747383899,3.6129793541124853,0.2724269563555555
0.9198370910048481,-0.0147744909718283,0.9972149880491298,0.6300430487340132,-0.0622913044128435,-0.2349607964823830,1.1452685332367769,4.3786232628577100,3.9952513288956193,0.2953739427602663
1.0190903949438797,-0.0221308684810971,1.0122598299243715,0.6201285219545708,-0.0841932813962192,-0.2052210524943134,1.2416836715183990,4.4685121495826161,4.4022279416825514,0.3178728744481893
1.1181732704113627,-0.0315126329259808,1.0306742531230675,0.6138210881925384,-0.1031408818391120,-0.1755709255330875,1.3392758371723832,4.5655091180533010,4.8404218366765246,0.3399064832834492
1.2170775287542734,-0.0426241571298535,1.0498578788730557,0.6154634152146650,-0.1191411158074978,-0.1459778793160110,1.4360442607711794,4.6698365825017047,5.3166058327608150,0.3614598660192060
1.3158102783288428,-0.0551713748182675,1.0717502320777512,0.6151940995309050,-0.1321982594746551,-0.1164185668458130,1.5337976633884101,4.7818054627268536,5.8380122272881003,0.3825200844644401
1.4143913056137123,-0.0688617192443717,1.0896097228299133,0.6009422261901631,-0.1423146887455802,-0.0868772401303999,1.6310477431187833,4.9018103172126510,6.4125358811914426,0.4030758575278930
1.5128504835592271,-0.0834039506997960,1.0963526907859582,0.5889034510179121,-0.1494915579575071,-0.0575853930003450,1.7291034145832782,5.0303269604823937,7.0428483129139261,0.4231173271821516
1.6112251988543085,-0.0985078958690784,1.0932218463897532,0.5559769909062351,-0.1537773356895589,-0.0307086287185709,1.8269496919571853,5.1677947742671462,7.6798922037060038,0.4426361081748770
1.7095563116746535,-0.1138935626543415,1.0913972272587096,0.5500003300250438,-0.1556042630824925,-0.0122752786210767,1.9254247645088081,5.3136450785830256,8.1534096683233344,0.4616272997759125
1.8078752559657691,-0.1293568647222807,1.0926950216294988,0.5722347035135150,-0.1562207917993930,-0.0063862518316218,2.0239166048699628,5.4642292607168557,8.3093205610337222,0.4800961598307264
1.9061873317421780,-0.1448637691320216,1.0900185705950640,0.5871025747116013,-0.1568754787723385,-0.0089412307268590,2.1228255375138536,5.6135384243243607,8.2182456036107521,0.4980650373714107
2.0044859399131809,-0.1604557934435160,1.0986835626485250,0.5902971862405398,-0.1580005889042224,-0.0139091429933501,2.2218683072553369,5.7574036577160337,8.0389439442253305,0.5155706268038394
2.1027628633612503,-0.1761838807132980,1.1046123581040490,0.5958017109881890,-0.1596441637542201,-0.0191184281491632,2.3211161519931784,5.8947340160145840,7.8356749785326114,0.5326537610129291
2.2010096733486693,-0.1920989401994751,1.1181448077465730,0.5966034455687619,-0.1618062080699323,-0.0243277917823361,2.4205797402689497,6.0255804304027158,7.6167157921260369,0.5493525667631179
2.2992176503333441,-0.2082518342350718,1.1242559555325493,0.5876886797902297,-0.1644867324706227,-0.0295373110484346,2.5200773904571565,6.1501028320602362,7.3827876927528404,0.5657011354974599
2.3973777048516300,-0.2246933646524292,1.1270783086211789,0.5802201781003641,-0.1676857569927366,-0.0347471044911978,2.6196501114137147,6.2684404299857537,-5.2288909312076939,0.5817299856893300
2.4954802984826538,-0.2414742586374432,1.1302698268617106,0.5562215251905307,-0.1714033157828649,-0.0399573447186232,2.7195256145396671,6.1848612639201477,-6.8313818174708096,0.5977140953533466
2.5935153648971898,-0.2586451539470703,1.1283729816030876,0.5516658803179255,-0.1756394631664651,-0.0452289664240539,2.8192482785927320,6.0739351979556355,-6.6824410679757733,0.6139518154703550
2.6914722309917334,-0.2762565834121241,1.1234318864666999,0.5517865444287440,-0.1804063625690380,-0.0511088392400574,2.9193051915516532,5.9634315933029969,-6.4738527406033093,0.6304882283662658
2.7893390975281918,-0.2943613228421517,1.1227532108321576,0.5500001113047532,-0.1858129251263905,-0.0591163929694891,3.0191199875637862,5.8543885067616976,-6.1774509680981007,0.6473318438932908
2.8870997367226101,-0.3130309087585075,1.1187836023959563,0.5620169269931301,-0.1921737627053659,-0.0702861031450916,3.1192810073967467,5.7484096910812204,-5.8350176267052367,0.6644875957119257
2.9847282482190742,-0.3323791565536947,1.1195050503257367,0.5633960476530383,-0.1998037008303259,-0.0835870272753026,3.2191381478493648,5.6464791705226354,-5.4980724869616706,0.6819563553763486
3.0821924531157339,-0.3525382916169538,1.1180795496432567,0.5676870480849652,-0.2088121349159140,-0.0975021804700526,3.3193383001958252,5.5487216176543805,-5.1824905655728273,0.6997366871380852
3.1794563414748525,-0.3736422203567838,1.1126525115194568,0.5696145347649266,-0.2192119264551384,-0.1114877567480852,3.4192029082995847,5.4549716110193422,-4.8880000602117466,0.7178264463858526
3.2764799602275660,-0.3958240105083951,1.1176136602964180,0.5800671968233670,-0.2310042226221836,-0.1254875137338431,3.5194007600196371,5.3650479746885109,-4.6125444521221262,0.7362232621025315
3.3732188541335955,-0.4192157231275721,1.1187193847234367,0.6050554160368382,-0.2441906882364200,-0.1395073528409801,3.6195874422023580,5.2787873706489368,-4.3541966398572933,0.7549245678427695
3.4696235081686368,-0.4439482250260073,1.1204332037945772,0.6169604386083788,-0.2587736437703985,-0.1535546485368334,3.7194315373516602,5.1960445435414933,-4.1111346206775465,0.7739275743560802
3.5656387909727703,-0.4701509788955842,1.1181030234553608,0.6262005923822102,-0.2747562205202445,-0.1676384240864587,3.8195909479693126,5.1166928225388348,-3.8816179528639814,0.7932292339523258
3.6612033988157813,-0.4979518081905768,1.1174246827452317,0.6298622830487017,-0.2921425335812007,-0.1817695341585660,3.9194224497046348,5.0406249067839184,-3.6639644168597894,0.8128261949821436
3.7562492993363210,-0.5274766336390018,1.1099760720883032,0.6340772423218877,-0.3109378733478194,-0.1959608568201361,4.0195586638811056,4.9677539689482604,-3.4565262484214112,0.8327147445270958
3.8507011741192709,-0.5588491779333049,1.0960398819921549,0.6364735620722608,-0.3311489166839487,-0.2102274980962772,4.1193846909031500,4.8980151211345007,-3.2576652910059987,0.8528907370703636
3.9444758589505984,-0.5921906348425213,1.0794890665736596,0.6235916861001590,-0.3527839591136295,-0.2245870110421753,4.2195124081453521,4.8313672979178914,-3.0657262628998843,0.8733495065457346
4.0374817803947005,-0.6276192984753867,1.0550268967964014,0.6264635343163568,-0.3758531695647580,-0.2390596335779747,4.3196467815128239,4.7677956249779223,-2.8790071623337394,0.8940857587380084
4.1296183871286294,-0.6652501478738471,1.0274719246718289,0.6290107207269211,-0.4003688698617627,-0.2536685510421277,4.4194836612232544,4.7073143586370332,-2.6957256414337545,0.9150934405292072
4.2207755742789885,-0.7051943814009913,1.0020184729574937,0.6552931925741634,-0.4263458416833188,-0.2684401896657808,4.5196519264943467,4.6499705015422954,-2.5139799079247553,0.9363655819568633
4.3108330988286143,-0.7475588945428330,0.9710382560067958,0.7006091976126141,-0.4538016644143656,-0.2834045474806149,4.6198626589686507,4.5958482234235882,-2.3317023177236451,0.9578941064880653
4.3996599840180215,-0.7924456936944548,0.9376260095112938,0.7220381245223935,-0.4827570879027050,-0.2985955704377061,4.7197461976754918,4.5450742446042307,-2.1466032471970653,0.9796696043436089
4.4871139105815168,-0.8399512372093422,0.9054976680953883,0.7609076082742183,-0.5132364450949671,-0.3140515847360110,4.8200551415984352,4.4978243756002954,-1.9561021040867295,1.0016810631754318
4.5730405926298534,-0.8901656934582486,0.8664457957867074,0.8150305346914762,-0.5452681107481228,-0.3298157981477765,4.9204592383702890,4.4543314491764505,-1.7572413324196041,1.0239155499810941
4.6572731360597706,-0.9431721037833949,0.8362238805262573,0.8625924758847092,-0.5788850137322692,-0.3459368852603831,5.0209850467689696,4.4148949331669405,-1.5465778643624857,1.0463578379479999
4.7396313775675738,-0.9990454359881767,0.8079272198056391,0.9100026307070296,-0.6141252120849185,-0.3624696748231347,5.1216622128592455,4.3798925754181877,-1.3200445170888044,1.0689899721297347
4.8199212027182217,-1.0578515112888331,0.7696787151272793,0.9635721189538361,-0.6510325419456189,-0.3794759616114500,5.2217698518442841,4.3497945089029511,-1.0727710335129095,1.0917907687131818
4.8979338421398246,-1.1196457843669378,0.7315751376226816,1.0201651277316857,-0.6896573539821906,-0.3970254732201269,5.3227232974673830,4.3251803399294939,-0.7988506729148469,1.1147352444722403
4.9734451458629376,-1.1844719521943337,0.6735373863747941,1.0894793075163192,-0.7300573544797082,-0.4151970239340173,5.4239126526157841,4.3067598565152050,-0.4954678217886460,1.1377939762713589
5.0462148371351283,-1.2523603625329769,0.6109063878678684,1.1751490338521751,-0.7722985710776582,-0.4338602734415323,5.5253765409743201,4.2952953772745506,-0.1940889700700432,1.1609326721391702
5.1159857492524772,-1.3233261870599820,0.5612904068054403,1.2743635942148601,-0.8164127547640625,-0.4511401938918627,5.6271550508409565,4.2907960926037880,-0.0008112205349462,1.1841142299017717
5.1824895926907351,-1.3973615755003326,0.5500008515541455,1.3828606481112760,-0.8620927617688863,-0.4616422313362534,5.7292894421337630,4.2907772774693491,0.0000000000000000,1.2073078420311272
5.2454945799850998,-1.4743961900569922,0.5637392059097681,1.4938111174785142,-0.9082968634122777,-0.4616862936188516,5.8318240967663133,4.2907772774693491,0.0000000000000000,1.2305014585625786
5.3048829794955754,-1.5542525010140187,0.5837455080087365,1.5907561635962111,-0.9539856693709363,-0.4550054940890603,5.9348092012509435,4.2907772774693491,0.1229986611863879,1.2536951361369468
5.3605959879544161,-1.6367154431802047,0.5763472755212542,1.6508040278810636,-0.9988603059613466,-0.4470562554130325,6.0406582231472541,4.2936291302019756,0.2584056721841781,1.2768811830834648
5.4125882486648562,-1.7215737780068530,0.5818986895931882,1.6291559550543098,-1.0429671793282163,-0.4397713845269953,6.1449158049733335,4.2996143917375207,0.3700854182281397,1.3000434514847525
5.4608199481806174,-1.8086248220931911,0.6236297179787510,1.5557600359327353,-1.0863920763926980,-0.4333290017533314,6.2496866950771084,4.3081719482865202,0.4572639966869716,1.3231666444761720
5.5052557832646274,-1.8976735734697099,0.6531505537205837,1.4646760854942089,-1.1292168616498466,-0.4276925408463019,6.3549436500776935,4.3187219556810836,0.5229527377088249,1.3462386717317656
5.5458640696902366,-1.9885318534975063,0.6876868458678643,1.3621743213850994,-1.1715200485802173,-0.4228308933306802,6.4639233996409740,4.3307560539483125,0.5696171678460521,1.3692504993778987
5.5826159758469318,-2.0810174639918757,0.7141722175039136,1.2749603210017035,-1.2133773137025483,-0.4187178814903673,6.5701121368942150,4.3438260721794801,0.5992855926720370,1.3921957667766860
5.6154848670135378,-2.1749533581832377,0.7346006584335933,1.2015655991432994,-1.2548619632257632,-0.4153318269721956,6.6765246770504962,4.3575345399115788,-0.0134531464849163,1.4150704493983333
5.6444457485881356,-2.2701668235537213,0.7585885980683399,1.1277623819527571,-1.2960453613370890,-0.4126552030309710,6.7865596165441238,4.3572272763631759,-0.6573898661387763,1.4379099798195207
5.6694747987004845,-2.3664886740890085,0.7844267241689503,1.0667976741327228,-1.3369973277171114,-0.4106743589707527,6.8930424826187009,4.3421862988708853,-0.7492980863092191,1.4607898236793520
5.6905489825126345,-2.4637524491045131,0.8072486490298050,1.0340014512050828,-1.3777865110418510,-0.4093793093069951,7.0026885117282474,4.3249786778073736,-0.8353287853945301,1.4837548110160612
5.7076457421840958,-2.5617936154995085,0.8258639963544477,1.0155354110423576,-1.4184807445784275,-0.4087635816335476,7.1085589705892147,4.3057142908588864,-0.9153626387686414,1.5068168523168270
5.7207427579995498,-2.6604487700385890,0.8421993353582796,1.0035386257797703,-1.4591473894389577,-0.4088241186827410,7.2140094285245819,4.2845046946586898,-0.9892785675107840,1.5299875557101053
5.7298177775767023,-2.7595548380396453,0.8610323731793436,0.9952016703819269,-1.4998536707027701,-0.4095612319787952,7.3216561397892121,4.2614637271433846,-1.0569488388510211,1.5532782326458046
5.7348485114202603,-2.8589482646523425,0.8856427284211146,0.9808454594896436,-1.5406670114553220,-0.4109786062164701,7.4257881351672248,4.2367082278750665,-1.1182334281239288,1.5766998954154321
5.7358125944009890,-2.9584641947261354,0.9152726688244607,0.9696370020638723,-1.5816553697804361,-0.4130833542910653,7.5293119688810490,4.2103589021681405,-1.1729734930173787,1.6002632454676056
5.7326876140518008,-3.0579356370985611,0.9445359287792453,0.9705435481803251,-1.6228875837406704,-0.4158861241790117,7.6340189957658131,4.1825413599414540,-1.2209837704244522,1.6239786511372836
5.7254512079461568,-3.1571926089594764,0.9663477749993128,0.9623552129110551,-1.6644337296215150,-0.4194012608485739,7.7360053351376514,4.1533873665219172,-1.2620436402169899,1.6478561130051042
5.7140812338527525,-3.2560612557792230,0.9813743739946369,0.9427960921195737,-1.7063654991035140,-0.4236470277216752,7.8373967415189725,4.1230363507718373,-1.2958865331337039,1.6719052146232236
5.6985560179306889,-3.3543629421332626,0.9906049980046551,0.9101563690017508,-1.7487566015374032,-0.4286458939724169,7.9382274042271526,4.0916372259312697,-1.3221872674739537,1.6961350557688357
5.6788546879509019,-3.4519133086034901,0.9906238458001333,0.8829970751626988,-1.7916831982360062,-0.4344248959577208,8.0385397805790291,4.0593505910291068,-1.3405467794742600,1.7205541646926772
5.6549576004881228,-3.5485212898087433,0.9835658212816376,0.8752098509739513,-1.8352243766050558,-0.4410160835747146,8.1383820931323463,4.0263513961760724,-1.3503704005131472,1.7451703849979292
5.6268468732671888,-3.6439880885237699,0.9719180595893914,0.8758208383620145,-1.8794626731712745,-0.4484570655091016,8.2378060116671783,3.9928347452816300,-1.3392581275445881,1.7699907238336334
5.5945070364547593,-3.7381061008098593,0.9579434955402627,0.8754437573249250,-1.9244846561037319,-0.4567916709290943,8.3368645898981697,3.9593137773427931,-1.3158647956975440,1.7950202287882120
5.5579258197542893,-3.8306577871319751,0.9395799957020312,0.8803240287233932,-1.9703815797734627,-0.4660707497497418,8.4356104982356435,3.9260997063457896,-1.2785953998971393,1.8202614778174457
5.5170950958087257,-3.9214144846220327,0.9145364480561678,0.8901539607728651,-2.0172501263412697,-0.4763531396462631,8.5340945726508597,3.8935550830313668,-1.2254300125082926,1.8457148959331697
5.4720120047888408,-4.0101351560295031,0.8835065301880882,0.9140430478793049,-2.0651932525142547,-0.4877068356057597,8.6323646857553182,3.8621064679413295,-1.1538001175149972,1.8713782261674816
5.4226802903193088,-4.0965650715637603,0.8501244515876337,0.9522069584113952,-2.1143211635669736,-0.5002104075131125,8.7304649388640563,3.8322603751690671,-1.0604235747384527,1.8972458719747498
5.3691118833197065,-4.1804344209089130,0.8142096495310307,0.9998604693217965,-2.1647524417994273,-0.5139547241541464,8.8284351720889624,3.8046233906422260,-0.9410820356644738,1.9233080844577735
5.3113287781875211,-4.2614568543509206,0.7762043091641093,1.0572654850985841,-2.2166153631166239,-0.5290450587774571,8.9263107923712202,3.7799276283448306,-0.7903173500999736,1.9495499649331118
5.2493652554307033,-4.3393279544517993,0.7316490155079248,1.1170372499951582,-2.2700494438115868,-0.5456036760049549,9.0241229258422511,3.7590630232660174,-0.6010126573315013,1.9759502522052741
5.1832705168195856,-4.4137236434152500,0.6711518249053550,1.1845146974401859,-2.3252072710464424,-0.5637730234603191,9.1218989101710601,3.7431183894026150,-0.3688988934697650,2.0024798662972580
5.1131118140422922,-4.4842985365524708,0.6070712931933669,1.2600958365020569,-2.3822566835451027,-0.5833968035018339,9.2196631536287352,3.7332980035281595,-0.1282572673644695,2.0291006722912459
5.0389781704905472,-4.5506842605579125,0.5620778778938872,1.3432247886267157,-2.4413191250401334,-0.6017646853266809,9.3174384000900456,3.7298776683623336,0.0000000000000000,2.0557684411912831
4.9609926153627368,-4.6124979148355711,0.5500044044459941,1.4347878345053737,-2.5020230839013422,-0.6109838761930610,9.4152482829246829,3.7298776683623336,0.0000000000000000,2.0824481857679271
4.8793655580266044,-4.6694160925110415,0.5637683979248792,1.5236816555384864,-2.5629197452221599,-0.6056376866631259,9.5131275112015921,3.7298776683623336,0.0743761214905180,2.1091279044472775
4.7944472541366148,-4.7212975617849056,0.5697091837838691,1.5747457021325220,-2.6225600798058233,-0.5911573173963605,9.6111420115768453,3.7318614897933080,0.2670760778390243,2.1358007315753675
4.7066256625270366,-4.7680985887108953,0.5647493908355115,1.5521706489768541,-2.6805757153072580,-0.5754813240803972,9.7093869141882667,3.7389765463020099,0.4548023876004385,2.1624412924457812
4.6162705975772393,-4.8098007532246063,0.5755255712386462,1.4713796120053180,-2.7370969882514711,-0.5613675491341908,9.8079794122896917,3.7510617634036683,0.6012979110499077,2.1890137499155422
4.5237290627981874,-4.8463971041236498,0.5982663446168640,1.3738999180775797,-2.7923043217767676,-0.5490055824600188,9.9070560541174899,3.7669803073315542,0.7095335750400072,2.2154873890806792
4.4293279723942600,-4.8778894091558911,0.6221013178074780,1.2692976222305523,-2.8463658155268581,-0.5382817824131065,10.0078010460262217,3.7856782466512873,0.7856901093592694,2.2418398267629676
4.3333767236282545,-4.9042859192067985,0.6411318315728810,1.1600729666621814,-2.8994392983498072,-0.5291017217145149,10.1087859466561252,3.8062760188595153,0.8345133398463621,2.2680559798783801
