# x_m,y_m,w_tr_right_m,w_tr_left_m,psi,kappa,s,velocity,acceleration,time
-0.0316958273938089,0.0696612190816076,1.0575385828769286,0.8106155863500120,0.1967069737422096,0.0187979866494207,0.0000000000000000,8.0000000000000000,0.0000000000000000,0.0000000000000000
0.0663672554731217,0.0892036194422786,1.0559721575300396,0.7705130833057291,0.1948273373453693,0.0282062222195358,0.0879925098588863,8.0000000000000000,0.0000000000000000,0.0124989209741927
0.1645031112152842,0.1083772368527487,1.0630833371242467,0.7448315624988747,0.1910662162405017,0.0376331803303788,0.1873947606334557,8.0000000000000000,0.0000000000000000,0.0249978420444101
0.2627104225446740,0.1271814373180752,1.0634649085155046,0.7932867650618551,0.1873013509048427,0.0376710360562938,0.2867863716603393,8.0000000000000000,0.0000000000000000,0.0374967632189104
0.3609878686831730,0.1456155819030818,1.0636775552191222,0.7656800662908821,0.1835326592481241,0.0377096762482007,0.3861671684899978,8.0000000000000000,0.0000000000000000,0.0499956844886681
0.4593341249244796,0.1636790293444402,1.0682799767542404,0.7459542338007159,0.1797600664851289,0.0377490909989364,0.4855369823051139,8.0000000000000000,0.0000000000000000,0.0624946058484717
0.5577478627385163,0.1813711349288948,1.0686230246519925,0.7837489515043087,0.1759834925048267,0.0377893116960236,0.5848956499282735,8.0000000000000000,0.0000000000000000,0.0749935272960291
0.6562277495891344,0.1986912505847267,1.0751729520463524,0.7696518099998801,0.1722028562454487,0.0378303549481202,0.6842430137063147,8.0000000000000000,0.0000000000000000,0.0874924488247813
0.7547724489264807,0.2156387246319017,1.0778050842456501,0.7419278273816847,0.1684180742750183,0.0378722414978594,0.7835789215235255,8.0000000000000000,0.0000000000000000,0.0999913704308062
0.8533806200697663,0.2322129015990503,1.0840547073383027,0.7326714753985353,0.1646290613833850,0.0379149902914839,0.8829032267149748,8.0000000000000000,0.0000000000000000,0.1124902921082712
0.9520509181392116,0.2484131220855986,1.0903175531774643,0.7658096024201623,0.1608357303499330,0.0379586215355466,0.9822157880337680,8.0000000000000000,0.0000000000000000,0.1249892138523445
1.0507819939573679,0.2642387225373964,1.1102956720249333,0.7726003963414576,0.1570379919236129,0.0380031539538870,1.0815164695776776,8.0000000000000000,0.0000000000000000,0.1374881356570134
1.1495724939647227,0.2796890351046214,1.1178482173421893,0.7520094666072014,0.1532357551395545,0.0380486058577162,1.1808051407393878,8.0000000000000000,0.0000000000000000,0.1499870575168480
1.2484210601136678,0.2947633874829830,1.1163806688189024,0.7207669888049205,0.1494289270846842,0.0380949969114714,1.2800816761327378,8.0000000000000000,0.0000000000000000,0.1624859794261877
1.3473263297661839,0.3094611027240382,1.1189670774848179,0.6941857472078453,0.1456174128618795,0.0381423445525262,1.3793459555189294,8.0000000000000000,0.0000000000000000,0.1749849013786653
1.4462869355990429,0.3237814990737162,1.1282649738670307,0.6773323161298825,0.1418011160708819,0.0381906661574578,1.4785978637428987,8.0000000000000000,0.0000000000000000,0.1874838233686925
1.5453015054729240,0.3377238898783372,1.1408819552345373,0.6758648195467150,0.1379799383394973,0.0382399809874180,1.5778372906396583,8.0000000000000000,0.0000000000000000,0.1999827453901225
1.6443686623348805,0.3512875833309457,1.1538511260001081,0.6978219987828131,0.1341537794158052,0.0382903062051665,1.6770641309570047,8.0000000000000000,0.0000000000000000,0.2124816674366356
1.7434870240916645,0.3644718823995787,1.1652972245129951,0.7151312784532845,0.1303225374953312,0.0383416589697769,1.7764077571603873,8.0000000000000000,0.0000000000000000,0.2249805895022078
1.8426552034872199,0.3772760846391717,1.1715884186067533,0.7088447925945929,0.1264861088946574,0.0383940568260215,1.8758402575179118,8.0000000000000000,0.0000000000000000,0.2374795115804946
1.9418718079812585,0.3896994820577940,1.1701411402324757,0.6855086036004739,0.1226443883005910,0.0384475163104072,1.9750370111165856,8.0000000000000000,0.0000000000000000,0.2499784336657357
2.0411354395983001,0.4017413609783394,1.1677657739158693,0.6594895417717326,0.1187972687230938,0.0385020542643811,2.0742207686316556,8.0000000000000000,0.0000000000000000,0.2624773557503477
2.1404446948417588,0.4134010019029599,1.1704197017640723,0.6389785321393118,0.1149446414802242,0.0385576897471849,2.1733914480486334,8.0000000000000000,0.0000000000000000,0.2749762778310597
2.2397981644819209,0.4246776793673716,1.1781084751920128,0.6247774899287744,0.1110863957706227,0.0386144287667546,2.2725489716489662,8.0000000000000000,0.0000000000000000,0.2874751998996916
2.3391944333468691,0.4355706617093474,1.1880496807696035,0.6170332011717192,0.1072224217168734,0.0386723505149742,2.3716932658183993,8.0000000000000000,0.0000000000000000,0.2999741219335710
2.4386320809530817,0.4460792116321913,1.1982809393311249,0.6219512469920995,0.1033525926568539,0.0387319241273508,2.4708242617498195,8.0000000000000000,0.0000000000000000,0.3124730440014299
2.5381096806046410,0.4562025823295826,1.2078570647552291,0.6427008122104830,0.0994767048813525,0.0387937717118050,2.5699418942994576,8.0000000000000000,0.0000000000000000,0.3249719661216524
2.6376257993283252,0.4659400058774342,1.2155738068527335,0.6602058861814106,0.0955945073865689,0.0388578058392800,2.6690461012334588,8.0000000000000000,0.0000000000000000,0.3374708881396560
2.7371789997278682,0.4752906956451476,1.2185473796966564,0.6593339373071296,0.0917058139594829,0.0389233963006478,2.7681368254789391,8.0000000000000000,0.0000000000000000,0.3499698100362409
2.8367678383765971,0.4842538570319298,1.2151022824085709,0.6426253870985683,0.0878104995539375,0.0389902151081365,2.8672140143746052,8.0000000000000000,0.0000000000000000,0.3624687318931503
2.9363908639363636,0.4928286887868979,1.2100124466572852,0.6214621250734512,0.0839084435467565,0.0390582527834230,2.9662776179136614,8.0000000000000000,0.0000000000000000,0.3749676536974675
3.0360466178197085,0.5010143825911245,1.2086149501482781,0.6040125917922218,0.0799995228150727,0.0391275444936117,3.0653275894025591,8.0000000000000000,0.0000000000000000,0.3874665754416585
3.1357336341687954,0.5088101231572413,1.2118561652137827,0.5919317632699963,0.0760836096928950,0.0391980715180053,3.1643638854672869,8.0000000000000000,0.0000000000000000,0.3999654971448729
3.2354504383671392,0.5162150872227033,1.2177192066246345,0.5839292526698279,0.0721605848383202,0.0392699397262705,3.2633864645353676,8.0000000000000000,0.0000000000000000,0.4124644186810630
3.3351955505878927,0.5232284465151562,1.2242925654172565,0.5808751041961534,0.0682302993496713,0.0393453787274076,3.3628741773960713,8.0000000000000000,0.0000000000000000,0.4249633402723543
3.4349674870985289,0.5298493592964412,1.2307317513522906,0.5877893541221270,0.0642921877469393,0.0394300505713763,3.4618769418565356,8.0000000000000000,0.0000000000000000,0.4374622626016117
3.5347647504683564,0.5360768948204767,1.2368083742405429,0.6072086355324932,0.0603449690829441,0.0395275814540100,3.5608658577205321,8.0000000000000000,0.0000000000000000,0.4499611850394222
3.6345858391384165,0.5419099657615690,1.2425076880213410,0.6294602232748600,0.0563873532504062,0.0396345234695154,3.6598408922037411,8.0000000000000000,0.0000000000000000,0.4624601065303198
3.7344292564899195,0.5473473953642274,1.2478340418986906,0.6423828429474142,0.0524187484928003,0.0397453142118295,3.7588020286176778,8.0000000000000000,0.0000000000000000,0.4749590275019417
3.8342934943164217,0.5523879897790606,1.2527833583085932,0.6448881743521172,0.0484389765972180,0.0398576847578913,3.8577492533815740,8.0000000000000000,0.0000000000000000,0.4874579484483193
3.9341770269864824,0.5570305474339962,1.2573533735357092,0.6422782617959326,0.0444478997080833,0.0399714549454249,3.9566825506643042,8.0000000000000000,0.0000000000000000,0.4999568693018810
4.0340783162372533,0.5612738579650132,1.2615438017772180,0.6384193518449806,0.0404453758013648,0.0400866443197862,4.0556019072287395,8.0000000000000000,0.0000000000000000,0.5124557900541831
4.1339958106129826,0.5651167028985106,1.2653508030218854,0.6346471021153670,0.0364312630866306,0.0402032688767219,4.1545073119757907,8.0000000000000000,0.0000000000000000,0.5249547107197763
4.2339279448569078,0.5685578551782280,1.2687668544342237,0.6312330943677281,0.0324054163417131,0.0403213524895645,4.2533987554062165,8.0000000000000000,0.0000000000000000,0.5374536312878931
4.3338731399729369,0.5715960791539280,1.2717879453875838,0.6282120546124162,0.0283676890057896,0.0404409140007144,4.3522762297633966,8.0000000000000000,0.0000000000000000,0.5499525517610953
4.4338298028302336,0.5742301305406002,1.2743961129513754,0.6256038870486249,0.0243179320858085,0.0405619760041415,4.4511397287152565,8.0000000000000000,0.0000000000000000,0.5624514721371435
4.5337963259563248,0.5764587561846898,1.2765463032735194,0.6234536967264812,0.0202559945039202,0.0406845578745870,4.5499892472205987,8.0000000000000000,0.0000000000000000,0.5749503924143745
4.6337710872860161,0.5782806941040483,1.2782470989766439,0.6217529010233565,0.0161817233916226,0.0408086819093836,4.6488247813525483,8.0000000000000000,0.0000000000000000,0.5874493125931781
4.7337524498624530,0.5796946733167921,1.2795499089499425,0.6204500910500579,0.0120949632121434,0.0409343717872296,4.7480839063822824,8.0000000000000000,0.0000000000000000,0.5999482326714383
4.8337387616007303,0.5806994137129798,1.2804824895748865,0.6195175104251142,0.0079955563619358,0.0410616490857122,4.8470432076908772,8.0000000000000000,0.0000000000000000,0.6124471526487101
4.9337283549994186,0.5812936260105962,1.2810561946874903,0.6189438053125104,0.0038833429884917,0.0411905381516703,4.9458440677849174,8.0000000000000000,0.0000000000000000,0.6249460725247244
5.0337195468493690,0.5814760115970021,1.2813063301790992,0.6186936698209012,-0.0002418393803632,0.0413210625152126,5.0446309139096464,8.0000000000000000,0.0000000000000000,0.6374449922980961
5.1337106379594157,0.5812452624182587,1.2812496302781564,0.6187503697218438,-0.0043801553025591,0.0414532445578309,5.1434037456820079,8.0000000000000000,0.0000000000000000,0.6499439119680124
5.2336999128709047,0.5806000609344315,1.2807614513069310,0.6192385007357177,-0.0085317717268818,0.0415871120377893,5.2421625626360520,8.0000000000000000,0.0000000000000000,0.6624428315352440
5.3336856395403398,0.5795390799551707,1.2796554918345417,0.6203422967893125,-0.0126968587627496,0.0417226858290254,5.3409073639689648,8.0000000000000000,0.0000000000000000,0.6749417509999500
5.4336660689425269,0.5780609824501913,1.2779641252504477,0.6219950599449218,-0.0168755875292428,0.0418599864710704,5.4396381482078553,8.0000000000000000,0.0000000000000000,0.6874406703505379
5.5336394352167870,0.5761644218171624,1.2758663422083001,0.6237254636626817,-0.0210681322543955,0.0419990754352823,5.5383549134057750,8.0000000000000000,0.0000000000000000,0.6999395896203451
5.6336039543698835,0.5738480412915082,1.2734523870036090,0.6240503117548558,-0.0252746763399738,0.0421398583475749,5.6370576559140577,8.0000000000000000,0.0000000000000000,0.7124385087662711
5.7335578243219887,0.5711104730225155,1.2707061902434096,0.6193280975824338,-0.0294953751060250,0.0422825274277183,5.7357463705198315,8.0000000000000000,0.0000000000000000,0.7249374277185432
5.8334992293075985,0.5679503447890260,1.2675880807706281,0.6053230128721235,-0.0337304505681966,0.0424275519906906,5.8344210546309760,8.0000000000000000,0.0000000000000000,0.7374363469474141
5.9334263249408696,0.5643662605207080,1.2640972729402349,0.5835643465570491,-0.0379801516757636,0.0425669315091446,5.9330816941835787,8.0000000000000000,0.0000000000000000,0.7499352657142411
6.0333372398952472,0.5603568152834987,1.2603818561988076,0.5635460589047434,-0.0422430997235590,0.0426783456095161,6.0317282648950741,8.0000000000000000,0.0000000000000000,0.7624341822786197
6.1332301298214711,0.5559209043466822,1.2570026276204060,0.5537335463928041,-0.0465150810094206,0.0427503687268292,6.1303607694227633,8.0000000000000000,0.0000000000000000,0.7749330989589590
6.2331031640060219,0.5510579796892279,1.2551849377234090,0.5551641650737849,-0.0507924333760916,0.0428033547849055,6.2296664336601308,8.0000000000000000,0.0000000000000000,0.7874320182831525
6.3329544756756837,0.5457676859820345,1.2563629940580918,0.5648949382433198,-0.0550750120020540,0.0428616322270121,6.3282778725355211,8.0000000000000000,0.0000000000000000,0.7999309380175111
6.4327821903800109,0.5400495221702800,1.2606271880816846,0.5793064999478316,-0.0593640186411364,0.0429284070314945,6.4268751481181292,8.0000000000000000,0.0000000000000000,0.8124298567335357
6.5325844388264711,0.5339029083509389,1.2655911213454032,0.5927986379360922,-0.0636599506454272,0.0429985108646526,6.5254582242789034,8.0000000000000000,0.0000000000000000,0.8249287752220072
6.6323593372620548,0.5273272601704725,1.2680572006874700,0.5981340555747364,-0.0679629767277403,0.0430704912118875,6.6240270516305761,8.0000000000000000,0.0000000000000000,0.8374276936169777
6.7321049898838563,0.5203219813935106,1.2673773809502253,0.5922385157991444,-0.0722733034462992,0.0431445128556819,6.7225815700699778,8.0000000000000000,0.0000000000000000,0.8499266117874710
6.8318194920114585,0.5128864636222572,1.2658238752925166,0.5809034979623483,-0.0765911324364987,0.0432205365900040,6.8211217116718883,8.0000000000000000,0.0000000000000000,0.8624255297775676
6.9315009280120616,0.5050200876498310,1.2652055163372109,0.5736267287920842,-0.0809166624576050,0.0432985556398922,6.9196473982061528,8.0000000000000000,0.0000000000000000,0.8749244475770225
7.0311473714116470,0.4967222229888286,1.2649692941042980,0.5734425385327026,-0.0852500937729723,0.0433785716824839,7.0181585409549658,8.0000000000000000,0.0000000000000000,0.8874233651802336
7.1307568846016549,0.4879922282309116,1.2647069581343082,0.5755778839292262,-0.0895916254808304,0.0434605760587464,7.1166550400510689,8.0000000000000000,0.0000000000000000,0.8999222825873681
7.2303275184381315,0.4788294511547484,1.2665113426291736,0.5757568355791606,-0.0939414561134084,0.0435445624807594,7.2151367837149527,8.0000000000000000,0.0000000000000000,0.9124211997944361
7.3298573119872383,0.4692332289712144,1.2718938160679447,0.5751269247528628,-0.0982997835109096,0.0436305234873505,7.3136036476117647,8.0000000000000000,0.0000000000000000,0.9249201168000983
7.4293442921759469,0.4592028884602095,1.2778626505159103,0.5758038679047703,-0.1026668047139334,0.0437184488721053,7.4120554941100467,8.0000000000000000,0.0000000000000000,0.9374190336018126
7.5287864735047583,0.4487377462485018,1.2801572837440900,0.5759820321299374,-0.1070427155214493,0.0438083292889360,7.5104921715741364,8.0000000000000000,0.0000000000000000,0.9499179501979517
7.6281818577327796,0.4378371090402541,1.2792424854662037,0.5731119158319575,-0.1114277111052790,0.0439001559587001,7.6089135136186785,8.0000000000000000,0.0000000000000000,0.9624168665868468
7.7275284335633927,0.4265002737822914,1.2789139580776949,0.5691481563679818,-0.1158219855086273,0.0439939157098365,7.7073193383574283,8.0000000000000000,0.0000000000000000,0.9749157827666939
7.8268241763570012,0.4147265280008343,1.2801537803624432,0.5681288242835056,-0.1202257312693908,0.0440895961553130,7.8057094476451798,8.0000000000000000,0.0000000000000000,0.9874146987363520
7.9260670478226842,0.4025151500501286,1.2808002191132393,0.5699787622029163,-0.1246391399537126,0.0441871881472224,7.9047835637638384,8.0000000000000000,0.0000000000000000,0.9999136144944595
8.0252549957191572,0.3898654093515198,1.2804246511319279,0.5712392859626887,-0.1290624022699802,0.0442866780931174,8.0032597386179685,8.0000000000000000,0.0000000000000000,1.0124125300397024
8.1243859535553788,0.3767765666264447,1.2808170371301693,0.5708448514843003,-0.1334957070661649,0.0443880481281785,8.1016094969257555,8.0000000000000000,0.0000000000000000,1.0249114453710224
8.2234578403188152,0.3632478743425174,1.2819501562668418,0.5705537523415739,-0.1379392414781353,0.0444912853730761,8.1999426934208497,8.0000000000000000,0.0000000000000000,1.0374103604875562
8.3224685601732986,0.3492785769254330,1.2821454071616094,0.5707446203512434,-0.1423931917781898,0.0445963770228962,8.2982590453838512,8.0000000000000000,0.0000000000000000,1.0499092753882273
8.4214160021736806,0.3348679110442022,1.2817415411862432,0.5704246045012140,-0.1468577425413815,0.0447033051120558,8.3965582492628457,8.0000000000000000,0.0000000000000000,1.0624081900720854
8.5202980399948807,0.3200151059955252,1.2823716243872472,0.5700016159491015,-0.1513330764472962,0.0448120526826163,8.4948399798304823,8.0000000000000000,0.0000000000000000,1.0749071045383796
8.6191125316530410,0.3047193840366615,1.2839678954373914,0.5700960946456307,-0.1558193746796723,0.0449226029180691,8.5931038893271623,8.0000000000000000,0.0000000000000000,1.0874060187861649
8.7178573192317508,0.2889799606980458,1.2855821017840006,0.5697566899933115,-0.1603168165550353,0.0450349388339857,8.6913496066006566,8.0000000000000000,0.0000000000000000,1.0999049328146144
8.8165302286228631,0.2727960451968741,1.2871190533230883,0.5681246549090028,-0.1648255798605267,0.0451490409712150,8.7895767362321138,8.0000000000000000,0.0000000000000000,1.1124038466228316
8.9151290692446370,0.2561668406912359,1.2885839867703759,0.5652455877335343,-0.1693458400210339,0.0452648842911375,8.8877848576552267,8.0000000000000000,0.0000000000000000,1.1249027602096502
9.0136516338279122,0.2390915448637065,1.2895584921767351,0.5613150721841504,-0.1738777698165794,0.0453824675284123,8.9859735242757477,8.0000000000000000,0.0000000000000000,1.1374016735747088
9.1120956981344108,0.2215693502414059,1.2899728504839654,0.5571856807566556,-0.1784215444186530,0.0455017423304437,9.0841422625573802,8.0000000000000000,0.0000000000000000,1.1499005867159358
9.2104590205880985,0.2035994437931201,1.2902415290307980,0.5541106950862036,-0.1829773269373463,0.0456226261650792,9.1822905711542226,8.0000000000000000,0.0000000000000000,1.1623994996323459
9.3087393425460263,0.1851810100951777,1.2906847781577546,0.5524192357448936,-0.1875452760403000,0.0457457488773124,9.2804179199862631,8.0000000000000000,0.0000000000000000,1.1748984123250810
9.4069343875595450,0.1663132294561122,1.2912745784047761,0.5514572682979528,-0.1921256807926182,0.0458681891721507,9.3785237492478046,8.0000000000000000,0.0000000000000000,1.1873973247849281
9.5050418567652653,0.1469952545717440,1.2917418176686146,0.5506023778799519,-0.1967181156599012,0.0460055418213938,9.4766074691414453,8.0000000000000000,0.0000000000000000,1.1998962370298398
9.6030594602961905,0.1272263745535048,1.2917617824125682,0.5500978422882863,-0.2013259883695337,0.0463173921150450,9.5746684558179709,8.0000000000000000,0.0000000000000000,1.2123951489944378
9.7009847320731595,0.1070051002285301,1.2912823436676804,0.5502631789491780,-0.2059807876636430,0.0470801026129472,9.6727060651468566,8.0000000000000000,0.0000000000000000,1.2248940606895109
9.7988140487400130,0.0863245858757462,1.2907477187398881,0.5504419043917824,-0.2107411891121249,0.0483379117502797,9.7707197177171832,8.0000000000000000,0.0000000000000000,1.2373929724380137
9.8965423658728913,0.0651719141670443,1.2906777712166613,0.5501213997777679,-0.2156475285018704,0.0497609988919096,9.8687089558251362,8.0000000000000000,0.0000000000000000,1.2498918845719509
9.9941640408882826,0.0435324440130670,1.2909657940582326,0.5500000000000000,-0.2206925224121339,0.0509935270517528,9.9666734029856183,8.0000000000000000,0.0000000000000000,1.2623907958378844
10.0916739343803563,0.0213947933012748,1.2909033067676625,0.5507355954044793,-0.2258453448036741,0.0521905952433430,10.0646126976131196,8.0000000000000000,0.0000000000000000,1.2748897051077173
10.1890674014741140,-0.0012495597397620,1.2899675389306831,0.5516406332107325,-0.2311297304511857,0.0538511022113401,10.1625264950472314,8.0000000000000000,0.0000000000000000,1.2873886139083324
