# x_m,y_m,w_tr_right_m,w_tr_left_m,psi,kappa,s,velocity,acceleration,time
0.0377457053490518,0.6166334580620414,-0.0717921477488783,0.6166877342683953,3.1203615081107241,-0.0004488061501446,0.0000000000000000,6.7678737157082054,-5.2840517217151479,0.0000000000000000
-0.0621580873071843,0.6187548487745294,-0.1705431128024827,0.6187590036642379,3.1204063556546853,-0.0718678446429177,0.0999263132796124,6.6894007965074440,-2.1372990962315344,0.0148508991458717
-0.1620619419300664,0.6208672758886890,-0.2692944079247776,0.6208214325595535,3.1347244764330959,-0.1435597053401005,0.1998524986207061,6.6573972936182546,-1.8672335216085676,0.0298247055474267
-0.2619855154836903,0.6201273205327613,-0.3681507369979414,0.6200706509777527,-3.1340881857114296,-0.1509238557671873,0.2997788119003185,6.6293112162111347,-1.5967214163697891,0.0448662507436186
-0.3619086282930141,0.6193675046959513,-0.4670033882639865,0.6193003039740249,-3.1182983488024862,-0.1582280708555661,0.3997048134895481,6.6051994086328163,-1.5883698522539496,0.0599670737996139
-0.4617590168333696,0.6154728938045693,-0.5652755313522360,0.6154417342701139,-3.1024659394737135,-0.1534827830999660,0.4996311267691605,6.5811259933907102,-1.8442266547312454,0.0751231252746184
-0.5616078782834587,0.6115499395222959,-0.6635444216724656,0.6115553587170958,-3.0876244755045299,-0.1487313188161383,0.5995570228280895,6.5530639657234619,-2.1087244238315290,0.0903392743283461
-0.6612986960980648,0.6046936337305250,-0.7614766722442167,0.6047912636363193,-3.0727416568104733,-0.1468591203387024,0.6994833361077020,6.5208291822490629,-2.2510644442257668,0.1056256641050760
-0.7609864694997857,0.5978007921515509,-0.8594078831300908,0.5979912514748801,-3.0582743714751137,-0.1450434040513584,0.7994091257259266,6.4862419350444709,-2.3635630717884601,0.1209905050776711
-0.8604372033360995,0.5880632552415357,-0.9572581435346358,0.5883947167943632,-3.0437544274993487,-0.1475141549367773,0.8993354390055390,6.4497263625671852,-2.3297126745377414,0.1364398801813594
-0.9598826350822799,0.5782788141507642,-1.0551048717064460,0.5787521042415655,-3.0287933826830415,-0.1500068362120272,0.9992610572555303,6.4135305560430664,-2.2983998402326864,0.1519764769985187
-1.0589975289022451,0.5655703166505769,-1.1527313967406927,0.5662369482267160,-3.0137752715397301,-0.1524707463271066,1.0991873705351427,6.3776196929845446,-2.2687948662675081,0.1676007658754647
-1.1581040684626456,0.5528037872259035,-1.2503498208584778,0.5536649269092281,-2.9983218390723083,-0.1549256653948235,1.1991127950135421,6.3419722774710934,-2.2682550700309849,0.1833128146126413
-1.2567789119588602,0.5370385296430797,-1.3475496401046334,0.5381544611793948,-2.9828131080872584,-0.1562668732591957,1.2990391082931543,6.3061315903460118,-2.2851008040564045,0.1991138096588430
-1.3554416764608335,0.5212046158137745,-1.4447374118299885,0.5225768250113823,-2.9670916614615934,-0.1576180591058839,1.3989643499807565,6.2698179506671625,-2.3035393794103682,0.2150052922640686
-1.4535721258053291,0.5023450559805598,-1.5413942554164533,0.5040390216586829,-2.9513128938840332,-0.1591712705655091,1.4988906632603689,6.2329967703465412,-2.3157345724954892,0.2309899030112251
-1.5516859731661370,0.4834060096107365,-1.6380347143974725,0.4854234277154403,-2.9352810669171721,-0.1607556716370712,1.5988157077754364,6.1957605649885332,-2.3205092310737974,0.2470695547123617
-1.6491613856455416,0.4614102816704030,-1.7340450978506965,0.4638163703795486,-2.9191856546341688,-0.1629454020248352,1.6987420210550488,6.1582212621731935,-2.3133800033680516,0.2632467378550328
-1.7466146108892673,0.4393232588101278,-1.8300325139010567,0.4421201662187317,-2.9027162452601543,-0.1651466960019171,1.7986668312336758,6.1205686826035075,-2.3088618891150947,0.2795227407230734
-1.8433127733569550,0.4141293416667399,-1.9252383169908995,0.4173901704636566,-2.8861809019027693,-0.1673283786580511,1.8985931445132880,6.0827566847248367,-2.3019781055711923,0.2958996396865545
-1.9399821633172738,0.3888321774431472,-2.0204139895561073,0.3925588085949179,-2.8692755228435223,-0.1696234851899731,1.9985177034217745,6.0448226270034011,-2.1728672278117789,0.3123785356541696
-2.0357734052512115,0.3603838724952411,-2.1146700668840142,0.3646337138264575,-2.8522815004439681,-0.1752395189667823,2.0984440167013867,6.0087958335501508,-2.0397750744010712,0.3289588370145665
-2.1315269181560539,0.3318164386191886,-2.2088830372973991,0.3365898856795978,-2.8342538257584637,-0.1809689117898097,2.1983681554861692,5.9747788104699966,-1.8589080772362474,0.3456356870786073
-2.2262304242483388,0.2999336216250180,-2.3018963332160722,0.3052416826472508,-2.8161147816131731,-0.1879919261225395,2.2982944687657816,5.9436078413934279,-1.6832119965225250,0.3624041165982167
-2.3208842276402248,0.2679121397875527,-2.3948449039681332,0.2737558222805762,-2.7966836631899255,-0.1948205385636031,2.3982180285283166,5.9152421001357478,-1.6811020245651607,0.3792562667232651
-2.4142775219394697,0.2323739819063417,-2.4861519811920294,0.2387788372829275,-2.7771799217152342,-0.1952064301473335,2.4981443418079290,5.8867747067553893,-1.7328603799448989,0.3961900357416696
-2.5076102867763890,0.1966856357834152,-2.5773818366940442,0.2036544638273410,-2.7576717363911012,-0.1954297421907998,2.5980676275880388,5.8572869352773278,-1.7893399633653708,0.4132068547649074
-2.5995463098207354,0.1575316353180146,-2.6668297697718137,0.1651290421708513,-2.7381233660940580,-0.1932172401742852,2.6979939408676508,5.8266805258813115,-1.9344513842076709,0.4303117146700380
-2.6914127211515733,0.1182224573329133,-2.7562013037326953,0.1264499905950401,-2.7190573619816538,-0.1911525445486243,2.7979171564117427,5.7934111493520826,-2.0828709356160089,0.4475100670302120
-2.7817892788314325,0.0755921171091440,-2.8439377177189482,0.0844828990520711,-2.6999216201325633,-0.1925207895498703,2.8978434696913551,5.7573731439060198,-2.1169925613685305,0.4648121498572521
-2.8720840757080541,0.0327967900298170,-2.9315917677530776,0.0423522001235672,-2.6805822293936852,-0.1938991304997057,2.9977663918004334,5.7205133819037632,-2.1522564340583736,0.4822235298851666
-2.9607445897220761,-0.0132963910322954,-3.0175994788311176,-0.0030487791322710,-2.6611710271596651,-0.1945342317829404,3.0976927050800458,5.6827932613429173,-2.2150610764248264,0.4997493785544720
-3.0493100731062892,-0.0595639827522055,-3.1035140620466457,-0.0486212384408138,-2.6417047659128206,-0.1952016738215974,3.1976153496139030,5.6437106348610495,-2.2815309062306484,0.5173934186659747
-3.1361093672892721,-0.1090730790375471,-3.1876978198911119,-0.0973807356330572,-2.6221601760829740,-0.1972450785332346,3.2975416628935155,5.6031687272343911,-2.3067065081367146,0.5351630256942829
-3.2227987448846882,-0.1587662804910013,-3.2717775762315497,-0.1463257739204740,-2.6022856140238906,-0.1996442605791223,3.3974639449860207,5.5618807097092757,-2.1601832811200921,0.5530621460979733
-3.3075620943652231,-0.2116854893900007,-3.3540349522999695,-0.1985219808775191,-2.5822615510321314,-0.2078437711809505,3.4973902582656331,5.5229338875687244,-1.9995138125753780,0.5710915524362895
-3.3921915450332896,-0.2648092406514653,-3.4361607332184674,-0.2509280569925468,-2.5607485213161780,-0.2159399640474174,3.5973116116815507,5.4866392695166573,-1.9703409029135042,0.5892432740317105
-3.4746003056701680,-0.3213252937333017,-3.5161040299745077,-0.3068147789653986,-2.5391064530709384,-0.2197840386184643,3.6972379249611631,5.4506359875832784,-1.9601078911910421,0.6075158896385537
-3.5568511557305338,-0.3780609492035192,-3.5958853608785466,-0.3629204110939859,-2.5168253479161296,-0.2230695848714724,3.7971585781680353,5.4145842081779865,-1.9498131898695736,0.6259086421841217
-3.6366605357383746,-0.4381918975447794,-3.6731625227400380,-0.4224106334205517,-2.4945266732189753,-0.2184477156858137,3.8970848914476477,5.3784799767364735,-2.1708174967162606,0.6444254065742159
-3.7163002500087234,-0.4985383039520742,-3.7502745078047424,-0.4821130419141320,-2.4731691953382207,-0.2141493600390518,3.9970057243872166,5.3379984146955142,-2.3964860331468332,0.6630734790640473
-3.7934691968523109,-0.5620223313031081,-3.8249810959095805,-0.5449054241267278,-2.4517295347505068,-0.2166181341491680,4.0969320376668286,5.2929465373320115,-2.4307072111706485,0.6818726194472462
-3.8704484643100359,-0.6257269219158103,-3.8995138986836166,-0.6079264574648164,-2.4298787773678954,-0.2198988873641887,4.1968524183879801,5.2468589334125699,-2.1925896525859594,0.7008331934347836
-3.9447703548933841,-0.6925215674030945,-3.9716119976701059,-0.6741508553141271,-2.4077834690963273,-0.2328202213515870,4.2967787316675921,5.2049336082312720,-1.9444986543938481,0.7199545667076396
-4.0188588204125777,-0.7595635148430012,-4.0434866085309125,-0.7406401957554305,-2.3833508441345033,-0.2454991024756626,4.3966973157224309,5.1674704412902317,-1.8571196397553926,0.7392208011462119
-4.0898294899832450,-0.8299086081071821,-4.1123761484640546,-0.8106683033076797,-2.3587217261663787,-0.2522778801177827,4.4966236290020429,5.1314325995542829,-1.7896482816038326,0.7586260354480232
-4.1605259730471111,-0.9005164183839662,-4.1809914573316211,-0.8809752457550218,-2.3329347352231302,-0.2583491269763708,4.5965408727074308,5.0964661361347776,-1.7821596734583696,0.7781642116242768
-4.2277760815256187,-0.9744264379705156,-4.2461598315343716,-0.9547869904888222,-2.3070923176874514,-0.2565716836856416,4.6964671859870428,5.0614027487525597,-1.9199393175232127,0.7978388726013013
-4.2947301799109585,-1.0485923431009299,-4.3110381067606953,-1.0288726778762474,-2.2816605666267868,-0.2551496337571489,4.7963843155215091,5.0233582526140221,-2.0609374784587198,0.8176543406170385
-4.3581357947602051,-1.1258257302547001,-4.3724387592118354,-1.1062423107055799,-2.2561023364446715,-0.2589455776926652,4.8963106288011211,4.9821927266878268,-2.0721982359806677,0.8376285156497431
-4.4212122616682477,-1.2033152059767382,-4.4335273598647920,-1.1838972147778244,-2.2299122153766993,-0.2631950096929586,4.9962268913677210,4.9404606829513886,-1.9922675471018987,0.8577675366236165
-4.4804874718500169,-1.2837621918964248,-4.4910121433635179,-1.2648466532985010,-2.2035047677577619,-0.2710426763769765,5.0961532046473330,4.8999991691521219,-1.9274261579868004,0.8780768137877831
-4.5393840813159079,-1.3644722468204717,-4.5481391478585724,-1.3460915636945205,-2.1757468044384805,-0.2782061161908486,5.1960677860277320,4.8605386432223456,-1.9198997221435505,0.8985499851029389
-4.5941044486325087,-1.4480841448158612,-4.6013195888829248,-1.4305957444721924,-2.1479078085982959,-0.2772985135312105,5.2959940993073440,4.8209064396705532,-2.0470901602335818,0.9191928359220137
-4.6484178996434462,-1.5319466054823032,-4.6541161724019249,-1.5153707498497500,-2.1203313050873245,-0.2761620043607359,5.3959083789161566,4.7782917264173976,-2.1844853185767090,0.9400100495850862
-4.6984462396228075,-1.6184476649241653,-4.7028704700556379,-1.6029977261717865,-2.0927194299135907,-0.2737763450453301,5.4958346921957686,4.7323880540538239,-2.3598185844154731,0.9610235450630426
-4.7480477860224299,-1.7051803633033664,-4.7512234957737167,-1.6908688404637906,-2.0656196627620567,-0.2727104325384094,5.5957490273703137,4.6823004265171324,-2.4004710797524180,0.9822487476559352
-4.7933169299782374,-1.7942644398331451,-4.7955031905020515,-1.7812182111961945,-2.0382208002349014,-0.2844372753847653,5.6956753406499256,4.6307879279766793,-2.2781179066604129,1.0037080766080533
-4.8380921798549146,-1.8835814639287951,-4.8393158627712678,-1.8718266745612839,-2.0087782742087850,-0.2964357223470948,5.7955870706660848,4.5813726579949900,-2.1380567618754389,1.0253993463343551
-4.8780405664396849,-1.9751751017806070,-4.8785642900744719,-1.9649672693503974,-1.9789816655180896,-0.3094077669901776,5.8955133839456968,4.5344987784572801,-2.0301407780345460,1.0473229361910592
-4.9174150880485765,-2.0669974458214955,-4.9172651947595032,-2.0583732119452933,-1.9469478503061524,-0.3209888820975195,5.9954218211123962,4.4895459444254415,-2.0194832811185668,1.0694656538381373
-4.9514178803042865,-2.1609606205468639,-4.9508409507715943,-2.1542629733077163,-1.9148369323680914,-0.3196764106837705,6.0953481343920082,4.4443698933687941,-2.1754777764511535,1.0918357578538660
-4.9848176552219554,-2.2551205847862699,-4.9838286897752191,-2.2503640427890530,-1.8830654777248990,-0.3191785977236942,6.1952563113852710,4.3951937058124937,-2.3328883779832013,1.1144405337282126
-5.0127857010163828,-2.3510531470375509,-5.0115198163792494,-2.3483684878303719,-1.8510540399859661,-0.3260554239132826,6.2951826246648830,4.3418307016515891,-2.3468275211038478,1.1373147546573070
-5.0400916131041669,-2.4471551568076020,-5.0385557430480992,-2.4465535918686139,-1.8179090676487490,-0.3347286388514611,6.3950886260701481,4.2874898874005174,-2.0749525907468920,1.1604697644577342
-5.0616441804629480,-2.5447295126901830,-5.0598985732083559,-2.5463084596528507,-1.7841644412929600,-0.3575850734484947,6.4950149393497609,4.2388541858991875,-1.8529815497784627,1.1839091922876603
-5.0824048911243720,-2.6424477071361334,-5.0804724456410719,-2.6462602270862297,-1.7464544423810207,-0.3777216794318238,6.5949141517237528,4.1949567357223421,-1.8382590215085408,1.2075993635050120
-5.0965451190793667,-2.7413684938244534,-5.0946172869698536,-2.7478582150117856,-1.7086860081497335,-0.3753108431996485,6.6948404650033657,4.1509373785733716,-2.0135930515227072,1.2315455847033969
-5.1098713041391761,-2.8403748729252869,-5.1079687455067582,-2.8495071972527937,-1.6714577602169793,-0.3698456855738714,6.7947396657554551,4.1021906888714250,-2.2235300040000308,1.2557543937599656
-5.1166148707127679,-2.9400733804142303,-5.1149046499452835,-2.9515685362941402,-1.6347814039175272,-0.3395614396014544,6.8946659790350679,4.0476647756861937,-2.8931300278370573,1.2802766233170850
-5.1226488313804248,-3.0397977009439905,-5.1211027462778702,-3.0532786776092151,-1.6036021744092359,-0.3140524386767990,6.9945726794433050,3.9756136616206033,-3.5316823928953629,1.3051808320364757
-5.1231668855730907,-3.1397226713243152,-5.1215657148799689,-3.1522588898240160,-1.5720233586407240,-0.3242223416713622,7.0944989927229178,3.8858316978571361,-3.5871775234455963,1.3306027000798990
-5.1228940265432570,-3.2396254728229223,-5.1212025624786257,-3.2506634698440848,-1.5388129900694332,-0.3415727269132737,7.1944021668432647,3.7924856153478705,-2.7999758228437819,1.3566248531233882
-5.1167794945050815,-3.3393645352990129,-5.1147376929354635,-3.3448164392461588,-1.5037670557118381,-0.4123470901475494,7.2943284801228776,3.7179785663883078,-2.0381285077380209,1.3832347432344714
-5.1095115313555510,-3.4389778869509913,-5.1071483317063748,-3.4387373365820633,-1.4564242046123352,-0.4816456465767327,7.3942066214536197,3.6628179924520836,-1.4318857109476870,1.4102990690249206
-5.0939968842970922,-3.5376924441971584,-5.0915191947154259,-3.5309989887710831,-1.4075321099821223,-0.5383150694891738,7.4941329347332326,3.6235437799984136,-0.8697935741170228,1.4377273841155689
-5.0770406792564389,-3.6360929254422256,-5.0744958134567701,-3.6233374589739773,-1.3488812135177302,-0.5889154246397030,7.5939836613136711,3.5994958653767100,-0.8660157360723476,1.4653752253244627
-5.0500840625508401,-3.7323145908894766,-5.0478002464027538,-3.7162088330014291,-1.2898803297196775,-0.5946734464253332,7.6939099745932840,3.5753734022292485,-0.8945877016092466,1.4932297574567128
-5.0216584372799193,-3.8280282821186074,-5.0196316875267621,-3.8089826835377729,-1.2300822119104970,-0.6010254718519448,7.7937554895689107,3.5503033427937218,-0.8888357816191890,1.5212539068949724
-4.9834185063874070,-3.9203482462162569,-4.9816222112727289,-3.9011049889643066,-1.1698123723798459,-0.6124690916539166,7.8936818028485236,3.5251975349355753,-0.8338093463946353,1.5494996282951745
-4.9436885419003360,-4.0119396960647018,-4.9420943289387660,-3.9928557477061037,-1.1077332427921385,-0.6252741390821368,7.9935189891244001,3.5015035773574072,-0.6695591571591996,1.5779161454290014
-4.8943149267080974,-4.0988161267493481,-4.8927391662556037,-4.0822018180829307,-1.0449054221752521,-0.6457182670039512,8.0934453024040138,3.4823431976259420,-0.5397431735522638,1.6065325559830124
-4.8434219904591460,-4.1846907956216066,-4.8418357392556324,-4.1708077292432417,-0.9787517263553740,-0.6623084525606975,8.1932678936044017,3.4668367457551641,-0.5143456622973678,1.6352618713881972
-4.7830244773432007,-4.2642986375410077,-4.7812466719859366,-4.2547833483819320,-0.9126100343484085,-0.6540509502018681,8.2931942068840137,3.4519796769605673,-0.6846074142346791,1.6641472492258103
-4.7212425787434791,-4.3427080822228517,-4.7192720340261811,-4.3372333966908485,-0.8481041462520147,-0.6494231546608645,8.3930192739258214,3.4321249581130044,-0.7736332458217536,1.6931488615874859
-4.6511097715103844,-4.4138885390580018,-4.6489393380158583,-4.4104808762336862,-0.7828868627922101,-0.6646411837481346,8.4929455872054334,3.4095262269017930,-0.6487801628899512,1.7223600302300732
-4.5796590053034398,-4.4835823177052117,-4.5774017815622665,-4.4816058440727495,-0.7153498391728395,-0.6829905181808513,8.5927575843484902,3.3904803500981227,-0.2898066027906537,1.7517164715843090
-4.5005843143468001,-4.5446761908494739,-4.4988945352051015,-4.5404528352592806,-0.6464674906560628,-0.7178349832052497,8.6926838976281022,3.3819282064584946,0.0000000000000000,1.7812263017858170
-4.4202579099479600,-4.6038736083389820,-4.4192032041774034,-4.5974141410469471,-0.5719914414729415,-0.7431734018980074,8.7924669897884140,3.3819282064584946,0.0000000000000000,1.8107310949300814
-4.3329975577801703,-4.6525654867706931,-4.3329525593461780,-4.6439295703076136,-0.4980487724242466,-0.7188037656508729,8.8923933030680260,3.3819282064584946,0.2787262132520091,1.8402782370275341
-4.2448071711713062,-4.6992787407933188,-4.2456439156943118,-4.6889566064627841,-0.4284287392393833,-0.6887171143947420,8.9921914613255964,3.3901432298829035,0.5845252233055095,1.8697516881556537
-4.1516365999746574,-4.7353967798949297,-4.1526698588192987,-4.7260135373431575,-0.3604951107131424,-0.6299208949974828,9.0921177746052084,3.4073288688191825,1.1866876875974541,1.8991527101322474
-4.0578934615806022,-4.7697392681832209,-4.0589353412496338,-4.7616997214371786,-0.3025944241381615,-0.5722747157736946,9.1919535522492897,3.4419235605272389,1.7203542671837475,1.9283050238114230
-3.9611750407370465,-4.7948553020099247,-3.9612491733434227,-4.7902629706606312,-0.2461763169074267,-0.5217395863167035,9.2918798655289017,3.4915118667164156,2.1396526431503564,1.9571294974300770
-3.8641332623765652,-4.8184259531853408,-3.8630532457498510,-4.8176031281252722,-0.1983562644014114,-0.4706244776139235,9.3917431838404717,3.5521825321032958,2.5616599925560477,1.9854848781883063
-3.7654588833399107,-4.8341941175485710,-3.7622835910378232,-4.8387680141707117,-0.1521504259071484,-0.4182061582804157,9.4916694971200837,3.6235280072387726,3.0089718693661558,2.0133361446884668
-3.6666320811924331,-4.8487098920311498,-3.6612269163143307,-4.8588501646026412,-0.1147930397899617,-0.3649515269007254,9.5915566561122478,3.7055459142048748,3.4888248469122276,2.0405939292497361
-3.5670560922914962,-4.8570699470582248,-3.5587594870838144,-4.8736104765366477,-0.0792281941062281,-0.3094110341626388,9.6914829693918598,3.7984630222684719,4.0357181755770579,2.0672267102406860
-3.4674280441046954,-4.8645255742466187,-3.4562228628322260,-4.8873961292463388,-0.0529625227008130,-0.2543836475683759,9.7913895976118326,3.9031668324934383,4.6245385641879730,2.0931709921924342
-3.3675504688577149,-4.8676461588776272,-3.3533545776694180,-4.8965101110546554,-0.0283939615432454,-0.2036301191477847,9.8913159108914464,4.0198180930179248,5.2095536313790785,2.1183954029969678
-3.2676643178922316,-4.8701991826083235,-3.2505639581591708,-4.9048438638663265,-0.0122680440856964,-0.1531977223011207,9.9912346833262031,4.1472885007574680,5.8649988840405332,2.1428639883613148
