# x_m,y_m,w_tr_right_m,w_tr_left_m,psi,kappa,s,velocity,acceleration,time
-0.0310014397238892,0.0219866851909274,-0.0361332975450926,0.0305356321485712,0.1918098086728250,0.0000000000000000,0.0000000000000000,8.0000000000000000,0.0000000000000000,0.0000000000000000
0.0671341309410338,0.0410443422560000,0.0625591445372589,0.0486876319756789,0.1918098086728250,0.0181463836230372,0.0999689177821787,8.0000000000000000,0.0000000000000000,0.0124961147227723
0.1652697016059568,0.0601019993210725,0.1612515866196104,0.0668396318027866,0.1881816600079145,0.0362953333451394,0.1999378355643574,8.0000000000000000,0.0000000000000000,0.0249922294455447
0.2635409751212818,0.0784470599589576,0.2600638158469737,0.0842942657707655,0.1845529982962186,0.0353341550437601,0.2999067529743779,8.0000000000000000,0.0000000000000000,0.0374883441217972
0.3618122678256467,0.0967920198322595,0.3588760620128190,0.1017488011278372,0.1811170255401195,0.0343727085053720,0.3998756707565566,8.0000000000000000,0.0000000000000000,0.0499844588445696
0.4602072859609134,0.1144613377352004,0.4578900157282759,0.1183831348900876,0.1776805933781287,0.0347231840617164,0.4998445878708010,8.0000000000000000,0.0000000000000000,0.0624805734838501
0.5586023391172751,0.1321304643943413,0.5569040265380518,0.1350172364902217,0.1741745472981100,0.0350739484261263,0.5998135056529796,8.0000000000000000,0.0000000000000000,0.0749766882066225
0.6571188357490257,0.1491093985552561,0.6560873397619615,0.1508642878663560,0.1706679840817251,0.0357151952682541,0.6997824223913059,8.0000000000000000,0.0000000000000000,0.0874728027989132
0.7556353839898133,0.1660880394095931,0.7552707249332072,0.1667110047749203,0.1670337284966983,0.0363567007087121,0.7997513401734846,8.0000000000000000,0.0000000000000000,0.0999689175216856
0.8542726882996542,0.1823504630334473,0.8545674502693386,0.1818387621401485,0.1633989040881172,0.0364360055499716,0.8997202564606678,8.0000000000000000,0.0000000000000000,0.1124650320575835
0.9529100610291530,0.1986124808529542,0.9538642398233214,0.1969661121472514,0.1597487924648977,0.0365150908684856,0.9996891742428466,8.0000000000000000,0.0000000000000000,0.1249611467803558
1.0516634548841275,0.2141544031266112,1.0532670757744658,0.2113753240260233,0.1560981559232346,0.0365951857718880,1.0996580901409203,8.0000000000000000,0.0000000000000000,0.1374572612676150
1.1504169308927430,0.2296958155063077,1.1526699868162249,0.2257840273968665,0.1524320302985400,0.0366753032728399,1.1996270079230988,8.0000000000000000,0.0000000000000000,0.1499533759903874
1.2492816260419501,0.2445132417257525,1.2521709135219465,0.2394753692748012,0.1487653752518103,0.0355078952847633,1.2995959234254406,8.0000000000000000,0.0000000000000000,0.1624494904281801
1.3481464156815841,0.2593300528553770,1.3516719235005819,0.2531661016911522,0.1453326586508108,0.0343392782658415,1.3995648412076196,8.0000000000000000,0.0000000000000000,0.1749456051509524
1.4471105080879263,0.2734683862288520,1.4513689313229430,0.2659918381955916,0.1418996543605568,0.0357053872863890,1.4995337566583262,8.0000000000000000,0.0000000000000000,0.1874417195822908
1.5460746989430183,0.2876060469595725,1.5510661334575397,0.2788167171432024,0.1381938008820291,0.0370740380417153,1.5995026744405050,8.0000000000000000,0.0000000000000000,0.1999378343050631
1.6451408606031874,0.3010105057495423,1.6508438004853261,0.2909300941991348,0.1344871515540180,0.0372409051611622,1.6994715891166721,8.0000000000000000,0.0000000000000000,0.2124339486395840
1.7442071378231416,0.3144141336285601,1.7506215587010339,0.3030426649359875,0.1307479350253196,0.0374066204651151,1.7994405068988508,8.0000000000000000,0.0000000000000000,0.2249300633623564
1.8433707722306336,0.3270773647622464,1.8504639551800284,0.3144549761041195,0.1270081529554472,0.0374375152147904,1.8994094211254637,8.0000000000000000,0.0000000000000000,0.2374261776406830
1.9425345307455431,0.3397396520649708,1.9503064340575402,0.3258663946067090,0.1232627593974782,0.0374682641340633,1.9993783389076425,8.0000000000000000,0.0000000000000000,0.2499222923634553
2.0417902393162981,0.3516597211299761,2.0502110480056173,0.3365719898903551,0.1195168294705762,0.0375592255938215,2.0993472527278754,8.0000000000000000,0.0000000000000000,0.2624184065909844
2.1410460781069993,0.3635787390632787,2.1501157499495678,0.3472765855850337,0.1157532492755837,0.0376502908196882,2.1993161705100541,8.0000000000000000,0.0000000000000000,0.2749145213137568
2.2403886978607837,0.3747513637970333,2.2500745258469674,0.3572769900888815,0.1119891119813479,0.0376764597937093,2.2992850838930967,8.0000000000000000,0.0000000000000000,0.2874106354866371
2.3397314527969013,0.3859228258429118,2.3500333859776239,0.3672762976446857,0.1082202996184458,0.0377025415944097,2.3992540016752755,8.0000000000000000,0.0000000000000000,0.2999067502094094
2.4391554642972819,0.3963463328301969,2.4500439444406679,0.3765651636994307,0.1044509476010540,0.0378652161762701,2.4992229146469680,8.0000000000000000,0.0000000000000000,0.3124028643308710
2.5385796138665322,0.4067685689132727,2.5500545907480650,0.3858528225919488,0.1006496104351360,0.0380281523277049,2.5991918324291468,8.0000000000000000,0.0000000000000000,0.3248989790536433
2.6380799972741391,0.4164358934933940,2.6501035593699256,0.3944397531953068,0.0968476813357038,0.0379180707280438,2.6991607449109689,8.0000000000000000,0.0000000000000000,0.3373950931138711
2.7375805210113771,0.4261018284484506,2.7501525985346893,0.4030253939129095,0.0930683536459740,0.0378074896073567,2.7991296626931477,8.0000000000000000,0.0000000000000000,0.3498912078366435
2.8371511329843218,0.4350167948686842,2.8502468436538733,0.4108874742570883,0.0892885339087117,0.0371635959088431,2.8990985748355764,8.0000000000000000,0.0000000000000000,0.3623873218544471
2.9367218838852893,0.4439302727285022,2.9503411783797335,0.4187481203689652,0.0856379449277649,0.0365185434469682,2.9990674926177552,8.0000000000000000,0.0000000000000000,0.3748834365772194
3.0363549311382236,0.4521180252147377,3.0505347708038308,0.4257988911337655,0.0819870955797821,0.0372458176162876,3.0990364047638885,8.0000000000000000,0.0000000000000000,0.3873795505954861
3.1359881107031202,0.4603042363242233,3.1507285740425330,0.4328479417946866,0.0781910969796586,0.0379760246448949,3.1990053225460673,8.0000000000000000,0.0000000000000000,0.3998756653182584
3.2356804465594022,0.4677353462086705,3.2509621500668895,0.4391636719832858,0.0743942516558533,0.0377969820882127,3.2989742338265073,8.0000000000000000,0.0000000000000000,0.4123717792283134
3.3353729164628865,0.4751647450459211,3.3511958162157365,0.4454777404795227,0.0706340504358227,0.0376159429904435,3.3989431516086861,8.0000000000000000,0.0000000000000000,0.4248678939510858
3.4351183173498470,0.4818459253302476,3.4514817050600843,0.4510273469072091,0.0668734016864552,0.0378832513324711,3.4989120626165198,8.0000000000000000,0.0000000000000000,0.4373640078270650
3.5348638456596451,0.4885253043986373,3.5517677196221800,0.4565751130153051,0.0630597554169021,0.0381516617842153,3.5988809803986985,8.0000000000000000,0.0000000000000000,0.4498601225498373
3.6346573034084684,0.4944455103038015,3.6520853927970602,0.4613800498271864,0.0592454412876136,0.0384065820654725,3.6988498908030123,8.0000000000000000,0.0000000000000000,0.4623562363503765
3.7344508833425221,0.5003637808692327,3.7524031466783909,0.4661830929643154,0.0553808268106653,0.0386615352083025,3.7988188085851911,8.0000000000000000,0.0000000000000000,0.4748523510731489
3.8342871177832869,0.5055124910700942,3.8527309936270493,0.4702634627954391,0.0515155379275680,0.0388146783332909,3.8987877183724033,8.0000000000000000,0.0000000000000000,0.4873484647965504
3.9341234670021392,0.5106591304776481,3.9530588677349239,0.4743418880006247,0.0476203043469023,0.0389676017607726,3.9987566361545821,8.0000000000000000,0.0000000000000000,0.4998445795193228
4.0339967817613260,0.5150299213421579,4.0533842505549869,0.4777054437337786,0.0437244403074224,0.0390613219153566,4.0987255453902485,8.0000000000000000,0.0000000000000000,0.5123406931737811
4.1338702012194570,0.5193985147405138,4.1537096263188769,0.4810669747141850,0.0398104685227014,0.0391549116604357,4.1986944631724272,8.0000000000000000,0.0000000000000000,0.5248368078965534
4.2337746694859106,0.5229873769504403,4.2540247148772110,0.4837142387367900,0.0358958923729744,0.0391819147897230,4.2986633718969136,8.0000000000000000,0.0000000000000000,0.5373329214871142
4.3336792300901772,0.5265739202735411,4.3543397728418407,0.4863593785603595,0.0319765216412748,0.0392087330799018,4.3986322896790924,8.0000000000000000,0.0000000000000000,0.5498290362098865
4.4336087604359644,0.5293795548958147,4.4546423383996752,0.4882827611364911,0.0280565835187054,0.0392885852081318,4.4986011979494309,8.0000000000000000,0.0000000000000000,0.5623251497436789
4.5335383685727235,0.5321827566676853,4.5549448650385473,0.4902038951432209,0.0241212473260819,0.0393686214726624,4.5985701157316097,8.0000000000000000,0.0000000000000000,0.5748212644664512
4.6334868852357740,0.5342017998650772,4.6552289544643859,0.4914019528479591,0.0201853069468978,0.0394964862582785,4.6985390234908575,8.0000000000000000,0.0000000000000000,0.5873173779363572
4.7334354634855540,0.5362182889891791,4.7555129838386039,0.4925976554297291,0.0162244057470748,0.0396245310285530,4.7985079412730363,8.0000000000000000,0.0000000000000000,0.5998134926591295
4.8333968377585110,0.5374455046676019,4.8557681868563130,0.4930745076834813,0.0122628643974871,0.0396528915992202,4.8984768484635204,8.0000000000000000,0.0000000000000000,0.6123096060579400
4.9333582555191571,0.5386700379753279,4.9560232919067397,0.4935489169017231,0.0082962928468500,0.0396809382891060,4.9984457662457000,8.0000000000000000,0.0000000000000000,0.6248057207807125
5.0333262193922579,0.5391042154220103,5.0562474780213558,0.4932967398306500,0.0043291439217190,0.0397873323850503,5.0984146729666842,8.0000000000000000,0.0000000000000000,0.6373018341208355
5.1332942064395892,0.5395355948892695,5.1564715546782578,0.4930419905340936,0.0003413001669987,0.0398940206816361,5.1983835907488638,8.0000000000000000,0.0000000000000000,0.6497979488436080
5.2332624530326814,0.5391724536945904,5.2566562794918132,0.4920620175282833,-0.0036471797615913,0.0398950489251952,5.2983524969068512,8.0000000000000000,0.0000000000000000,0.6622940621133564
5.3332307005813409,0.5388063873209423,5.3568408594240724,0.4910793744734187,-0.0076352291010913,0.0398956985956686,5.3983214146890299,8.0000000000000000,0.0000000000000000,0.6747901768361287
5.4331928704303953,0.5376459094891917,5.4569862041114598,0.4893601554669556,-0.0116238389056837,0.0400480697107014,5.4982903204034033,8.0000000000000000,0.0000000000000000,0.6872862900504254
5.5331550170442654,0.5364823946044075,5.5571313988016167,0.4876381205139130,-0.0156423529942871,0.0402010575762121,5.5982592381855820,8.0000000000000000,0.0000000000000000,0.6997824047731978
5.6331046311101893,0.5345185640871337,5.6572260589862449,0.4851861017685340,-0.0196615508340947,0.0401607078508153,5.6982281432622495,8.0000000000000000,0.0000000000000000,0.7122785179077812
5.7330541954828620,0.5325515602099483,5.7573205187947121,0.4827311885385184,-0.0236719974864492,0.0401195821529944,5.7981970610444273,8.0000000000000000,0.0000000000000000,0.7247746326305534
5.8329848425489050,0.5297861162277142,5.8573648896685366,0.4795297396515836,-0.0276829727279648,0.0396718344330747,5.8981659657271184,8.0000000000000000,0.0000000000000000,0.7372707457158898
5.9329154119401437,0.5270173938359253,5.9574090548762868,0.4763252254756995,-0.0316038976761850,0.0392223682229384,5.9981348835092971,8.0000000000000000,0.0000000000000000,0.7497668604386621
6.0328213005988935,0.5234684017243415,6.0574396589214690,0.4723088735453406,-0.0355250076283078,0.0395579304296380,6.0981037883432636,8.0000000000000000,0.0000000000000000,0.7622629735429080
6.1327270844147481,0.5199160950540421,6.1574702053593029,0.4682890729563494,-0.0395130241534878,0.0398968176723544,6.1980727061254433,8.0000000000000000,0.0000000000000000,0.7747590882656804
6.2326014877527376,0.5155703715929870,6.2574621030518394,0.4634855229153509,-0.0435018904472764,0.0398746494295707,6.2980416100632146,8.0000000000000000,0.0000000000000000,0.7872552012579018
6.3324757533230720,0.5112211648461892,6.3574538310673230,0.4586785320304936,-0.0474854747022828,0.0398509155078002,6.3980105278453934,8.0000000000000000,0.0000000000000000,0.7997513159806742
6.4323123637213460,0.5060798714895740,6.4574065941774865,0.4530729339319760,-0.0514695956712425,0.0399298201305022,6.4979794313764190,8.0000000000000000,0.0000000000000000,0.8122474289220524
6.5321488034941515,0.5009349889806244,6.5573591807274374,0.4474637171345564,-0.0554689559446035,0.0400092239653596,6.5979483491585968,8.0000000000000000,0.0000000000000000,0.8247435436448246
6.6319410962659378,0.4949953034344738,6.6572678287670657,0.4410530991146023,-0.0594689527208647,0.0401416169322639,6.6979172521286561,8.0000000000000000,0.0000000000000000,0.8372396565160820
6.7317331827105091,0.4890519032646041,6.7571762714538899,0.4346387356333823,-0.0634947833555115,0.0402742702785101,6.7978861699108348,8.0000000000000000,0.0000000000000000,0.8497357712388544
6.8314744163007406,0.4823089251746026,6.8570281604600920,0.4274264051663470,-0.0675213025266683,0.0400329839888745,6.8978550722336243,8.0000000000000000,0.0000000000000000,0.8622318840292030
6.9312154050252897,0.4755620969724478,6.9568797771501041,0.4202102323440983,-0.0714988909065442,0.0397898847803652,6.9978239900158030,8.0000000000000000,0.0000000000000000,0.8747279987519754
7.0308998414882291,0.4680258814145712,7.0566941203852354,0.4121543207965078,-0.0754768053491450,0.0402971519646619,7.0977928922697968,8.0000000000000000,0.0000000000000000,0.8872241115337246
7.1305839976260605,0.4604857529257160,7.1565082788587855,0.4040942467301634,-0.0795558156240250,0.0408081810184169,7.1977618100519756,8.0000000000000000,0.0000000000000000,0.8997202262564969
7.2302036357515123,0.4521365695236640,7.2562494636868573,0.3952420927378936,-0.0836359040497374,0.0414218223271718,7.2977307110348661,8.0000000000000000,0.0000000000000000,0.9122163388793583
7.3298229449058558,0.4437832608288172,7.3559902764293650,0.3863859000066482,-0.0878376044293940,0.0420361376261735,7.3976996288170449,8.0000000000000000,0.0000000000000000,0.9247124536021306
7.4293689033992845,0.4345972383956072,7.4556095331124563,0.3767982964230654,-0.0920405176522745,0.0421254317332174,7.4976685282834232,8.0000000000000000,0.0000000000000000,0.9372085660354279
7.5289144774986791,0.4254068521272308,7.5552281527811909,0.3672068598819472,-0.0962600713007866,0.0422120614933410,7.5976374460656020,8.0000000000000000,0.0000000000000000,0.9497046807582002
7.6283793696980382,0.4153810877312892,7.6547169387730563,0.3568812660994425,-0.1004803050616714,0.0422426342154266,7.6976063448889516,8.0000000000000000,0.0000000000000000,0.9622007931111189
7.7278438277031363,0.4053508277001505,7.7542050260575612,0.3465517214077320,-0.1047059713534850,0.0422729278785569,7.7975752626711312,8.0000000000000000,0.0000000000000000,0.9746969078338914
7.8272204371677061,0.3944848204473544,7.8535622647358387,0.3354781563416683,-0.1089322619400472,0.0424345340314710,7.8975441609460022,8.0000000000000000,0.0000000000000000,0.9871930201182503
7.9265965614501486,0.3836141974136638,7.9529187807452510,0.3244004820964891,-0.1131902394131359,0.0425968988381359,7.9975130787281810,8.0000000000000000,0.0000000000000000,0.9996891348410226
8.0258770333489853,0.3719023076762971,8.0521328435839710,0.3125847960601723,-0.1174489928303279,0.0425801120456934,8.0974819761997239,8.0000000000000000,0.0000000000000000,1.0121852470249655
8.1251569634112251,0.3601856524634357,8.1513460994763456,0.3007649294505721,-0.1217036139888106,0.0425623253067455,8.1974508939819035,8.0000000000000000,0.0000000000000000,1.0246813617477379
8.2243341824418632,0.3476293953092207,8.2504162354602730,0.2881916082814453,-0.1259588111444150,0.0421867875554747,8.2974197909867922,8.0000000000000000,0.0000000000000000,1.0371774738733490
8.3235108051203088,0.3350682633284813,8.3494855404733670,0.2756139124675128,-0.1301383481055385,0.0418090913546397,8.3973887087689718,8.0000000000000000,0.0000000000000000,1.0496735885961215
8.4225796019899324,0.3216834246809093,8.4484395564148969,0.2622241987389969,-0.1343180295186426,0.0417667814734764,8.4973576060261493,8.0000000000000000,0.0000000000000000,1.0621697007532687
8.5216477576842529,0.3082936879446487,8.5473928868015818,0.2488296564277798,-0.1384891071345717,0.0417264599869489,8.5973265238083307,8.0000000000000000,0.0000000000000000,1.0746658154760413
8.6206014498770482,0.2940828773050266,8.6462373226652005,0.2345983895724536,-0.1426607267408153,0.0420924257236933,8.6972954206594100,8.0000000000000000,0.0000000000000000,1.0871619275824262
8.7195544450739035,0.2798670669478424,8.7450810954437355,0.2203620276990289,-0.1469049747463798,0.0424608851336719,8.7972643384415896,8.0000000000000000,0.0000000000000000,1.0996580423051987
8.8183839440511491,0.2648168104419927,8.8438083970459278,0.2052646116567901,-0.1511502632690325,0.0436199631233894,8.8972332340491000,8.0000000000000000,0.0000000000000000,1.1121541542561375
8.9172126735450234,0.2497613546479442,8.9425349729365653,0.1901618305364265,-0.1556262547934091,0.0447841536631396,8.9972021518312779,8.0000000000000000,0.0000000000000000,1.1246502689789097
9.0159034816822547,0.2338269933780410,9.0411257445057487,0.1741588102947859,-0.1601043088905101,0.0463309041241763,9.0971710443922120,8.0000000000000000,0.0000000000000000,1.1371463805490265
9.1145934111134270,0.2178870325433919,9.1397156508566422,0.1581500545703376,-0.1648895543152136,0.0478805110191696,9.1971399621743899,8.0000000000000000,0.0000000000000000,1.1496424952717987
9.2131271979895324,0.2010088965364793,9.2381431644603378,0.1411975241997262,-0.1696774332185609,0.0491854876472518,9.2971088504907744,8.0000000000000000,0.0000000000000000,1.1621386063113468
9.3116599679140482,0.1841246502239468,9.3365696204051360,0.1242388470542961,-0.1747235928072930,0.0504891147533907,9.3970777682729523,8.0000000000000000,0.0000000000000000,1.1746347210341190
9.4100183961795150,0.1662529567680714,9.4348274358101332,0.1062578449271679,-0.1797721158538648,0.0522776382882646,9.4970466526212025,8.0000000000000000,0.0000000000000000,1.1871308315776503
9.5083756653356861,0.1483746982768187,9.5330841300096854,0.0882700458795997,-0.1851758689072180,0.0540700150786095,9.5970155704033786,8.0000000000000000,0.0000000000000000,1.1996269463004223
9.6065351990741270,0.1294410607943597,9.6311318533843000,0.0692396958465391,-0.1905827555199859,0.0557832740002665,9.6969844490210022,8.0000000000000000,0.0000000000000000,1.2121230561276253
9.7046933898254100,0.1105002553475351,9.7291781574626786,0.0502022649748645,-0.1963290537867977,0.0574963274232372,9.7969533668031801,8.0000000000000000,0.0000000000000000,1.2246191708503975
9.8026288433918118,0.0904397860930537,9.8269741208865131,0.0300919086435005,-0.2020784441809558,0.0586760268537170,9.8969222394184442,8.0000000000000000,0.0000000000000000,1.2371152799273055
9.9005627535623155,0.0703715584369894,9.9247683496438164,0.0099741177710467,-0.2080606089452308,0.0598521322659291,9.9968911572006220,8.0000000000000000,0.0000000000000000,1.2496113946500778
9.9982511887648613,0.0491408215586553,10.0223089016672162,-0.0113090225243488,-0.2140451469780085,0.0616123386360113,10.0968600251581968,8.0000000000000000,0.0000000000000000,1.2621075031447746
10.0959378917278482,0.0279018812187747,10.1198476635737791,-0.0326003863236925,-0.2203792435063627,0.0633776575166674,10.1968289429403747,8.0000000000000000,0.0000000000000000,1.2746036178675468
10.1933495333887834,0.0054353463147103,10.2170913721030381,-0.0550812944906894,-0.2267167350311048,0.0650781424251723,10.2967978037004837,8.0000000000000000,0.0000000000000000,1.2870997254625605
