# x_m,y_m,w_tr_right_m,w_tr_left_m,psi,kappa,s,velocity,acceleration,time
0.0012768060737361,0.5314722741570879,1.4314738403634344,0.5685261596365656,0.0017119365304910,0.0000000000000000,0.0000000000000000,8.0000000000000000,0.0000000000000000,0.0000000000000000
0.1012474265698096,0.5316434176814826,1.4316452251733820,0.5683547748266182,0.0017119365304910,-0.0002177509042235,0.0999707669895350,8.0000000000000000,0.0000000000000000,0.0124963458736919
0.2012180470658832,0.5318145612058773,1.4318166099833298,0.5681833900166710,0.0017554739803067,-0.0004355192789345,0.1999415339790700,8.0000000000000000,0.0000000000000000,0.0249926917473837
0.3011886522806306,0.5319944096613580,1.4319964121245266,0.5680035878754738,0.0017990149231986,-0.0004388355640320,0.2999123009685746,8.0000000000000000,0.0000000000000000,0.0374890376210718
0.4011592574941519,0.5321742588152486,1.4321762149410586,0.5678237850589415,0.0018432154361439,-0.0004421523813574,0.3998830679581096,8.0000000000000000,0.0000000000000000,0.0499853834947637
0.5011298464194569,0.5323629447740749,1.4323649009419974,0.5676350990580026,0.0018874195485796,-0.0004448549505179,0.4998538349475819,8.0000000000000000,0.0000000000000000,0.0624817293684477
0.6011004353421481,0.5325516321509973,1.4325535883684750,0.5674464116315246,0.0019321604173486,-0.0004475579040946,0.5998246019371170,8.0000000000000000,0.0000000000000000,0.0749780752421396
0.7010710069832407,0.5327492636510559,1.4327511756750413,0.5672488243249585,0.0019769049624687,-0.0004509762670015,0.6997953689265556,8.0000000000000000,0.0000000000000000,0.0874744211158194
0.8010415786201730,0.5329468973042644,1.4329487651241066,0.5670512348758933,0.0020223293039610,-0.0004543952934141,0.7997661359160906,8.0000000000000000,0.0000000000000000,0.0999707669895113
0.9010121318941153,0.5331536109982656,1.4331557284106571,0.5668442715893428,0.0020677574544667,-0.0004982339080417,0.8997369029054931,8.0000000000000000,0.0000000000000000,0.1124671128631866
1.0009826851621630,0.5333603276069948,1.4333626947062457,0.5666373052937544,0.0021219469558151,-0.0005420892912542,0.9997076698950280,8.0000000000000000,0.0000000000000000,0.1249634587368785
1.1009532154454511,0.5335778760086235,1.4335806350376725,0.5664193649623273,0.0021761436189136,-0.0005032457305731,1.0996784368843278,8.0000000000000000,0.0000000000000000,0.1374598046105410
1.2009237457195152,0.5337954287569076,1.4337985797728352,0.5662014202271644,0.0022225666791542,-0.0004643693834640,1.1996492038738624,8.0000000000000000,0.0000000000000000,0.1499561504842328
1.3008942553734133,0.5340222590334845,1.4340253573476087,0.5659746426523909,0.0022689903457762,-0.0004678031260513,1.2996199708631904,8.0000000000000000,0.0000000000000000,0.1624524963578988
1.4008647650173807,0.5342490937779565,1.4342521391761232,0.5657478608238770,0.0023160999537770,-0.0004712544012135,1.3995907378527253,8.0000000000000000,0.0000000000000000,0.1749488422315907
1.5008352528557340,0.5344853431965555,1.4344883979683027,0.5655116020316975,0.0023632136736491,-0.0004738527049013,1.4995615048420115,8.0000000000000000,0.0000000000000000,0.1874451881052514
1.6008057406818346,0.5347215979051801,1.4347246620855079,0.5652753379144922,0.0024108427904750,-0.0004764510148415,1.5995322718315463,8.0000000000000000,0.0000000000000000,0.1999415339789433
1.7007762055618709,0.5349673703347816,1.4349703825981057,0.5650296174018946,0.0024584760204223,-0.0004801699952069,1.6995030388207903,8.0000000000000000,0.0000000000000000,0.2124378798525988
1.8007466704271711,0.5352131488767888,1.4352161091837254,0.5647838908162751,0.0025068487158872,-0.0004838902025833,1.7994738058103255,8.0000000000000000,0.0000000000000000,0.2249342257262907
1.9007171110619656,0.5354685929869312,1.4354718575293366,0.5645281424706634,0.0025552257698040,-0.0005307575494560,1.8994445727995228,8.0000000000000000,0.0000000000000000,0.2374305715999404
2.0006875516792526,0.5357240440809107,1.4357276131161509,0.5642723868838487,0.0026129691944963,-0.0005776601362380,1.9994153397890579,8.0000000000000000,0.0000000000000000,0.2499269174736322
2.1006579621467516,0.5359910334605439,1.4359951766859376,0.5640048233140622,0.0026707240235617,-0.0005354612375673,2.0993861067780588,8.0000000000000000,0.0000000000000000,0.2624232633472574
2.2006283725900428,0.5362580321042124,1.4362627497362981,0.5637372502637018,0.0027200301357215,-0.0004931911716189,2.1993568737675933,8.0000000000000000,0.0000000000000000,0.2749196092209492
2.3005987562431565,0.5365348797870741,1.4365395392794262,0.5634604607205735,0.0027693334229599,-0.0004967625199560,2.2993276407566996,8.0000000000000000,0.0000000000000000,0.2874159550945874
2.4005691398726072,0.5368117361691515,1.4368163369630700,0.5631836630369297,0.0028193535959846,-0.0005003712538110,2.3992984077462345,8.0000000000000000,0.0000000000000000,0.2999123009682793
2.5005394953294746,0.5370985849223864,1.4371032061206279,0.5628967938793721,0.0028693784190057,-0.0005028477165530,2.4992691747352880,8.0000000000000000,0.0000000000000000,0.3124086468419110
2.6005098507591948,0.5373854433045582,1.4373900849833483,0.5626099150166519,0.0029198937397898,-0.0005053235767018,2.5992399417248233,8.0000000000000000,0.0000000000000000,0.3249049927156029
2.7004801767252902,0.5376823921254614,1.4376869750826151,0.5623130249173851,0.0029704135900870,-0.0005093962245108,2.6992107087138266,8.0000000000000000,0.0000000000000000,0.3374013385892283
2.8004505026606248,0.5379793514809327,1.4379838756337617,0.5620161243662385,0.0030217432023214,-0.0005134710655660,2.7991814757033615,8.0000000000000000,0.0000000000000000,0.3498976844629202
2.9004207976153356,0.5382865631763866,1.4382914607319670,0.5617085392680330,0.0030730777825898,-0.0005632968224598,2.8991522426923053,8.0000000000000000,0.0000000000000000,0.3623940303365382
3.0003910925352115,0.5385937863997170,1.4385990578440284,0.5614009421559712,0.0031343696330892,-0.0006131783556863,2.9991230096818406,8.0000000000000000,0.0000000000000000,0.3748903762102301
3.1003613490793489,0.5389132528215765,1.4389193274455969,0.5610806725544027,0.0031956776036279,-0.0005676356241689,3.0990937766704727,8.0000000000000000,0.0000000000000000,0.3873867220838091
3.2003316055772499,0.5392327339943581,1.4392396123153084,0.5607603876846913,0.0032478635705262,-0.0005219782622624,3.1990645436600076,8.0000000000000000,0.0000000000000000,0.3998830679575009
3.3003018282337511,0.5395626345034570,1.4395694618040624,0.5604305381959374,0.0033000427380880,-0.0005257109013070,3.2990353106488444,8.0000000000000000,0.0000000000000000,0.4123794138311055
3.4002720508467577,0.5398925484040099,1.4398993235857453,0.5601006764142548,0.0033529750145627,-0.0005295036561995,3.3990060776383793,8.0000000000000000,0.0000000000000000,0.4248757597047974
3.5002422380182261,0.5402330322141700,1.4402398518546624,0.5597601481453376,0.0034059125113557,-0.0005318393395807,3.4989768446271516,8.0000000000000000,0.0000000000000000,0.4373721055783940
3.6002124251412919,0.5405735304595319,1.4405803946906763,0.5594196053093234,0.0034593117879484,-0.0005341735251321,3.5989476116166865,8.0000000000000000,0.0000000000000000,0.4498684514520858
3.7001825753793960,0.5409246909390814,1.4409315011166846,0.5590684988833151,0.0035127159853812,-0.0005386575635839,3.6989183786053994,8.0000000000000000,0.0000000000000000,0.4623647973256749
3.8001527255641592,0.5412758668377018,1.4412826228191109,0.5587173771808891,0.0035670118075004,-0.0005431452591961,3.7988891455949343,8.0000000000000000,0.0000000000000000,0.4748611431993668
3.9001228370796635,0.5416378832381483,1.4416451101864485,0.5583548898135514,0.0036213132816778,-0.0005958342653990,3.8988599125835721,8.0000000000000000,0.0000000000000000,0.4873574890729465
4.0000929485361345,0.5419999161877339,1.4420076149046406,0.5579923850953593,0.0036861438245210,-0.0006486014559451,3.9988306795731066,8.0000000000000000,0.0000000000000000,0.4998538349466383
4.1000630122714004,0.5423748948182947,1.4423836301083288,0.5576163698916711,0.0037509956517197,-0.0005997436918979,4.0988014465612945,8.0000000000000000,0.0000000000000000,0.5123501808201618
4.2000330759299755,0.5427498942535850,1.4427596670244323,0.5572403329755679,0.0038060574982726,-0.0005507229095443,4.1987722135508303,8.0000000000000000,0.0000000000000000,0.5248465266938538
4.3000030977653587,0.5431358819544697,1.4431455758096678,0.5568544241903325,0.0038611080350508,-0.0005546453220289,4.2987429805393464,8.0000000000000000,0.0000000000000000,0.5373428725674183
4.3999731195301610,0.5435218881987971,1.4435315012543513,0.5564684987456493,0.0039169541347728,-0.0005586534627371,4.3987137475288804,8.0000000000000000,0.0000000000000000,0.5498392184411101
4.4999430976300792,0.5439190417688680,1.4439286883159579,0.5560713116840426,0.0039728060653526,-0.0005608250766151,4.4986845145173175,8.0000000000000000,0.0000000000000000,0.5623355643146647
4.5999130756527933,0.5443162150481952,1.4443258952888955,0.5556741047111048,0.0040290863608845,-0.0005629939396955,4.5986552815068515,8.0000000000000000,0.0000000000000000,0.5748319101883564
4.6998830084154983,0.5447246212955497,1.4447342112132135,0.5552657887867867,0.0040853719372755,-0.0005679618299625,4.6986260484952203,8.0000000000000000,0.0000000000000000,0.5873282560619025
4.7998529410945361,0.5451330483080061,1.4451425476733781,0.5548574523266221,0.0041426455204081,-0.0005729354686066,4.7985968154847551,8.0000000000000000,0.0000000000000000,0.5998246019355944
4.8998228264195136,0.5455529058251656,1.4455626515008044,0.5544373484991957,0.0041999255337390,-0.0006285684392097,4.8985675824730297,8.0000000000000000,0.0000000000000000,0.6123209478091287
4.9997927116531393,0.5459727853930699,1.4459827780288217,0.5540172219711783,0.0042683224583537,-0.0006843040170224,4.9985383494625646,8.0000000000000000,0.0000000000000000,0.6248172936828206
5.0997625386082328,0.5464063181716765,1.4464100721074473,0.5535899278925528,0.0043367463286093,-0.0006320310900168,5.0985091164502272,8.0000000000000000,0.0000000000000000,0.6373136395562784
5.1997323654462049,0.5468398783885198,1.4468373805903734,0.5531626194096269,0.0043946917240130,-0.0005795413641756,5.1984798834397612,8.0000000000000000,0.0000000000000000,0.6498099854299701
5.2997021414879866,0.5472849967464940,1.4472745227949539,0.5527254772050462,0.0044526207179660,-0.0005834201857196,5.2984506504278990,8.0000000000000000,0.0000000000000000,0.6623063313034874
5.3996719174235936,0.5477301392633902,1.4477116855540606,0.5522883144459393,0.0045113416508993,-0.0005874129306156,5.3984214174174339,8.0000000000000000,0.0000000000000000,0.6748026771771792
5.4996416405003306,0.5481869982552960,1.4481606054007703,0.5518393945992296,0.0045700689603916,-0.0005903720558960,5.4983921844054784,8.0000000000000000,0.0000000000000000,0.6872990230506848
5.5996113634623219,0.5486438826810371,1.4486095507694761,0.5513904492305237,0.0046293815453726,-0.0005933294961405,5.5983629513950124,8.0000000000000000,0.0000000000000000,0.6997953689243765
5.6995810316406130,0.5491126005950915,1.4490667028618920,0.5509332971381078,0.0046887001700040,-0.0005936994550928,5.6983337183829708,8.0000000000000000,0.0000000000000000,0.7122917147978713
5.7995506996955664,0.5495813451505311,1.4495238734305580,0.5504761265694418,0.0047480867251455,-0.0005940638558176,5.7983044853725056,8.0000000000000000,0.0000000000000000,0.7247880606715632
5.8995203114975743,0.5500619367696747,1.4497601491127974,0.5502398508872028,0.0048074782086167,-0.0005461433127737,5.8982752523604036,8.0000000000000000,0.0000000000000000,0.7372844065450505
5.9994899231684045,0.5505425560155554,1.4499959096796369,0.5500040903203637,0.0048572834568730,-0.0004981063383783,5.9982460193499394,8.0000000000000000,0.0000000000000000,0.7497807524187424
6.0994594866029281,0.5510331056549682,1.4457136574881428,0.5542863425118576,0.0049070703539962,-0.0005353681035909,6.0982167863382841,8.0000000000000000,0.0000000000000000,0.7622770982922855
6.1994290499210791,0.5515236792519931,1.4414205053462805,0.5585794946537199,0.0049643257767478,-0.0005728348064212,6.1981875533278190,8.0000000000000000,0.0000000000000000,0.7747734441659774
6.2993985565264747,0.5520256764873961,1.4369253846494665,0.5630746153505338,0.0050216038239077,-0.0005540064822969,6.2981583203157268,8.0000000000000000,0.0000000000000000,0.7872697900394658
6.3993680629904759,0.5525277022039015,1.4324297604101841,0.5675702395898160,0.0050750946826517,-0.0005350392930370,6.3981290873052625,8.0000000000000000,0.0000000000000000,0.7997661359131578
6.4993375153194277,0.5530403943459253,1.4279370083704626,0.5720629916295378,0.0051285804008958,-0.0005222264682607,6.4980998542933328,8.0000000000000000,0.0000000000000000,0.8122624817866666
6.5993069675090466,0.5535531139412494,1.4234442637232227,0.5765557362767778,0.0051795094437994,-0.0005094269279887,6.5980706212828677,8.0000000000000000,0.0000000000000000,0.8247588276603585
6.6992763670976583,0.5540759887776501,1.4189759635949359,0.5810240364050646,0.0052304360023274,-0.0004609581534175,6.6980413882710330,8.0000000000000000,0.0000000000000000,0.8372551735338791
6.7992457665466439,0.5545988905706128,1.4145077283533605,0.5854922716466402,0.0052716741240932,-0.0004123897616554,6.7980121552605679,8.0000000000000000,0.0000000000000000,0.8497515194075710
6.8992151226709373,0.5551300105057744,1.4102754363883614,0.5897245636116392,0.0053128898438697,0.0000985769082480,6.8979829222491800,8.0000000000000000,0.0000000000000000,0.8622478652811475
6.9991844786767317,0.5556611529184591,1.4060437897541884,0.5939562102458121,0.0052519645058433,0.0006108534059096,6.9979536892387149,8.0000000000000000,0.0000000000000000,0.8747442111548394
7.0991538987750209,0.5561800915160733,1.4063334398983862,0.5936665601016139,0.0051907548768571,0.0001131822886682,7.0979244562261510,8.0000000000000000,0.0000000000000000,0.8872405570282689
7.1991233190537818,0.5566989957504265,1.4066358210206038,0.5933641789793962,0.0052293346654280,-0.0003873316718596,7.1978952232156859,8.0000000000000000,0.0000000000000000,0.8997369029019607
7.2990926988146274,0.5572256479446767,1.4071652351046220,0.5928347648953781,0.0052681985654870,-0.0003755220299564,7.2978659902043503,8.0000000000000000,0.0000000000000000,0.9122332487755438
7.3990620784581154,0.5577523225805718,1.4076953067802118,0.5923046932197885,0.0053044171161400,-0.0003622676665594,7.3978367571938852,8.0000000000000000,0.0000000000000000,0.9247295946492357
7.4990314198076202,0.5582862162655238,1.4082368669530301,0.5917631330469701,0.0053406309184496,-0.0003473246189764,7.4978075241826438,8.0000000000000000,0.0000000000000000,0.9372259405228305
7.5990007610431185,0.5588201314427340,1.4087784613289334,0.5912215386710666,0.0053738617332466,-0.0003323742738767,7.5977782911721787,8.0000000000000000,0.0000000000000000,0.9497222863965223
7.6989700666884948,0.5593606692518380,1.4093266024943878,0.5906733975056119,0.0054070863406235,-0.0003163404308102,7.6977490581610430,8.0000000000000000,0.0000000000000000,0.9622186322701304
7.7989393722250426,0.5599012273120891,1.4098747636790732,0.5901252363209261,0.0054371113242422,-0.0003003007806042,7.7977198251505797,8.0000000000000000,0.0000000000000000,0.9747149781438225
7.8989086452310051,0.5604477682737443,1.4104280947533281,0.5895719052466714,0.0054671289393524,-0.0003161208134536,7.8976905921395524,8.0000000000000000,0.0000000000000000,0.9872113240174440
7.9988779181348679,0.5609943280132905,1.4109814420537610,0.5890185579462385,0.0055003170046066,-0.0003320408314066,7.9976613591290873,8.0000000000000000,0.0000000000000000,0.9997076698911359
8.0988471546431917,0.5615475045472480,1.4115360723424475,0.5884639276575522,0.0055335176925273,-0.0002807819136371,8.0976321261179169,8.0000000000000000,0.0000000000000000,1.0122040157647396
8.1988163910343452,0.5621007023828470,1.4120907067614958,0.5879092932385039,0.0055564569711326,-0.0002293038628650,8.1976028931074509,8.0000000000000000,0.0000000000000000,1.0247003616384314
8.2987856020588797,0.5626584653605592,1.4126497828138715,0.5873502171861281,0.0055793650586158,-0.0002123230406559,8.2975736600966421,8.0000000000000000,0.0000000000000000,1.0371967075120803
8.3987548129997034,0.5632162434036018,1.4132088735239889,0.5867911264760107,0.0055989091655804,-0.0001954505604412,8.3975444270861779,8.0000000000000000,0.0000000000000000,1.0496930533857722
8.4987240021459947,0.5637779139987942,1.4137718460277269,0.5862281539722729,0.0056184437434874,-0.0001780961002118,8.4975151940754561,8.0000000000000000,0.0000000000000000,1.0621893992594320
8.5986931912186044,0.5643395977540889,1.4143348316551942,0.5856651683448058,0.0056345179730524,-0.0001607372549860,8.5974859610649919,8.0000000000000000,0.0000000000000000,1.0746857451331240
8.6986623622564689,0.5649044822043825,1.4149010089278764,0.5850989910721235,0.0056505817968169,-0.0001441761436897,8.6974567280543464,8.0000000000000000,0.0000000000000000,1.0871820910067933
8.7986315332319069,0.5654693777342571,1.4154671972488126,0.5845328027511870,0.0056633447723848,-0.0001276150631732,8.7974274950438822,8.0000000000000000,0.0000000000000000,1.0996784368804853
8.8986006898180534,0.5660368139925417,1.4160357146377547,0.5839642853622452,0.0056760973483065,-0.0001222112824444,8.8973982620333008,8.0000000000000000,0.0000000000000000,1.1121747827541626
8.9985698463532291,0.5666042592511177,1.4166042402772012,0.5833957597227989,0.0056877798836663,-0.0001168452600522,8.9973690290228365,8.0000000000000000,0.0000000000000000,1.1246711286278546
9.0985389896539175,0.5671740312956607,1.4171740335031939,0.5828259664968060,0.0056994595688395,-0.0000874586924016,9.0973397960122728,8.0000000000000000,0.0000000000000000,1.1371674745015341
9.1985081329066549,0.5677438117706324,1.4177438313219162,0.5822561686780838,0.0057052665087849,-0.0000579822879445,9.1973105630018086,8.0000000000000000,0.0000000000000000,1.1496638203752261
9.2984772695834099,0.5683147448447604,1.4183147686744051,0.5816852313255950,0.0057110526364348,-0.0000408604621895,9.2972813299913177,8.0000000000000000,0.0000000000000000,1.1621601662489147
9.3984464062358075,0.5688856821881417,1.4188857102477528,0.5811142897522474,0.0057134362122742,-0.0000237806492137,9.3972520969808517,8.0000000000000000,0.0000000000000000,1.1746565121226065
9.4984155401897237,0.5694570918303011,1.4194571212577576,0.5805428787422424,0.0057158073759176,-0.0000066776059438,9.4972228639703840,8.0000000000000000,0.0000000000000000,1.1871528579962980
9.5983846741334240,0.5700285032600406,1.4200285340445096,0.5799714659554901,0.0057147713430499,0.0000104282782014,9.5971936309599180,8.0000000000000000,0.0000000000000000,1.1996492038699897
9.6983538092711274,0.5705997057595817,1.4205997454748924,0.5794002545251073,0.0057137223299772,0.0000281416502090,9.6971643979494537,8.0000000000000000,0.0000000000000000,1.2121455497436817
9.7983229444134441,0.5711709074514633,1.4211709561268937,0.5788290438731061,0.0057091446583384,0.0000458601751956,9.7971351649389877,8.0000000000000000,0.0000000000000000,1.2246418956173735
9.8982920847764966,0.5717411946992310,1.4217413796619718,0.5782586203380280,0.0057045529762001,0.0000734163216363,9.8971059319285057,8.0000000000000000,0.0000000000000000,1.2371382414910632
9.9982612251601530,0.5723114783381040,1.4223118000906576,0.5776881999093422,0.0056944656863713,0.0001010149426507,9.9970766989180415,8.0000000000000000,0.0000000000000000,1.2496345873647552
10.0982303770081021,0.5728797487503700,1.4228804794936540,0.5771195205063457,0.0056843558936117,0.0001072267219287,10.0970474659074956,8.0000000000000000,0.0000000000000000,1.2621309332384369
10.1981995289022223,0.5734480110545432,1.4234491518848229,0.5765508481151767,0.0056730266111054,0.0001133550842576,10.1970182328970314,8.0000000000000000,0.0000000000000000,1.2746272791121289
10.2981686936006760,0.5740140163091370,1.4240155385380429,0.5759844614619573,0.0056616915041809,0.0001306487589178,10.2969889998864605,8.0000000000000000,0.0000000000000000,1.2871236249858076
