# x_m,y_m,w_tr_right_m,w_tr_left_m,psi,kappa,s,velocity,acceleration,time
-0.0026380633726328,0.5317337972765187,0.0282281845173152,0.4700945293612639,0.0016063319836963,-0.0000000000000067,0.0000000000000000,8.0000000000000000,0.0000000000000000,0.0000000000000000
0.0973271296837568,0.5318943747014944,0.1282002181781066,0.4702437781083449,0.0016063319836970,-0.0002118330829528,0.0999653220267442,8.0000000000000000,0.0000000000000000,0.0124956652533430
0.1972923227401465,0.5320549521264701,0.2281722518388981,0.4703930268554258,0.0016486839084029,-0.0004236833679622,0.1999306440534884,8.0000000000000000,0.0000000000000000,0.0249913305066860
0.2972575018363687,0.5322239969875187,0.3281451393593640,0.4705490435904693,0.0016910392723284,-0.0004264943478450,0.2998959660802034,8.0000000000000000,0.0000000000000000,0.0374869957600254
0.3972226809314574,0.5323930425361717,0.4281180269491682,0.4707050608751124,0.0017339531980527,-0.0004293057843011,0.3998612881069475,8.0000000000000000,0.0000000000000000,0.0499826610133684
0.4971878451506990,0.5325706671931285,0.5280917802613886,0.4708679311959515,0.0017768706542796,-0.0004321470772396,0.4998266101336319,8.0000000000000000,0.0000000000000000,0.0624783262667040
0.5971530093675244,0.5327482932435443,0.6280655337142236,0.4710308026298929,0.0018203526415310,-0.0004349888341359,0.5997919321603760,8.0000000000000000,0.0000000000000000,0.0749739915200470
0.6971181577617829,0.5329346112678108,0.7280401682545292,0.4712006085020706,0.0018638382520444,-0.0004377669527925,0.6997572541870283,8.0000000000000000,0.0000000000000000,0.0874696567733785
0.7970833061521858,0.5331209314099360,0.8280148030095178,0.4713704160638714,0.0019078756703481,-0.0004405455124105,0.7997225762137723,8.0000000000000000,0.0000000000000000,0.0999653220267215
0.8970484377487571,0.5333160538475796,0.9279903288828152,0.4715472470286807,0.0019519168000754,-0.0004433717359990,0.8996878982403905,8.0000000000000000,0.0000000000000000,0.1124609872800488
0.9970135693398722,0.5335111791451076,1.0279658550456390,0.4717240802754084,0.0019965192670814,-0.0004461984303643,0.9996532202671349,8.0000000000000000,0.0000000000000000,0.1249566525333919
1.0969786831327866,0.5337152189649306,1.1279422857842900,0.4719080201050592,0.0020411255396338,-0.0004490249230397,1.0996185422937177,8.0000000000000000,0.0000000000000000,0.1374523177867147
1.1969437969184720,0.5339192624054812,1.2279187168903440,0.4720919628211239,0.0020862931091408,-0.0004518518748829,1.1995838643204619,8.0000000000000000,0.0000000000000000,0.1499479830400577
1.2969088918715042,0.5341323325869103,1.3278960667132629,0.4722830952585136,0.0021314645759958,-0.0004546284810388,1.2995491863470074,8.0000000000000000,0.0000000000000000,0.1624436482933759
1.3968739868153568,0.5343454071682640,1.4278734169839939,0.4724742312004053,0.0021771872741598,-0.0004574055179154,1.3995145083737517,8.0000000000000000,0.0000000000000000,0.1749393135467190
1.4968390618660956,0.5345676186965164,1.5278516955707704,0.4726726459669920,0.0022229139557861,-0.0004602496941093,1.4994798304002581,8.0000000000000000,0.0000000000000000,0.1874349788000323
1.5968041369055213,0.5347898354211067,1.6278299746854961,0.4728710648731708,0.0022692052919284,-0.0004630943652170,1.5994451524270024,8.0000000000000000,0.0000000000000000,0.1999306440533753
1.6967691909548548,0.5350213019821768,1.7278091972791478,0.4730768435923027,0.0023155007104814,-0.0004658695282343,1.6994104744534684,8.0000000000000000,0.0000000000000000,0.2124263093066835
1.7967342449905441,0.5352527745557806,1.8277884204860750,0.4732826270954245,0.0023623468867531,-0.0004686451027254,1.7993757964802124,8.0000000000000000,0.0000000000000000,0.2249219745600265
1.8966992769144293,0.5354936070769070,1.9277685969513521,0.4734958596650258,0.0024091972277016,-0.0004714728193610,1.8993411185066362,8.0000000000000000,0.0000000000000000,0.2374176398133295
1.9966643088221434,0.5357344464432099,2.0277487741137721,0.4737090976823260,0.0024566087511815,-0.0004743010294788,1.9993064405333805,8.0000000000000000,0.0000000000000000,0.2499133050666726
2.0966293174600974,0.5359847579521557,2.1277299179393103,0.4739298676969637,0.0025040245380004,-0.0004771291888694,2.0992717625597597,8.0000000000000000,0.0000000000000000,0.2624089703199700
2.1965943260791416,0.5362350771586460,2.2277110625504091,0.4741506438324851,0.0025520014972087,-0.0004799578079176,2.1992370845865041,8.0000000000000000,0.0000000000000000,0.2749046355733130
2.2965593102384831,0.5364949807007081,2.3276931880217484,0.4743790348419947,0.0025999828116556,-0.0004827311110716,2.2992024066128378,8.0000000000000000,0.0000000000000000,0.2874003008266047
2.3965242943759577,0.5367548928110556,2.4276753143699659,0.4746074326591137,0.0026485142391497,-0.0004855048200752,2.3991677286395818,8.0000000000000000,0.0000000000000000,0.2998959660799477
2.4964892528373768,0.5370244992386394,2.5276584307765693,0.4748435347804774,0.0026970501030241,-0.0004883522778431,2.4991330506658676,8.0000000000000000,0.0000000000000000,0.3123916313332334
2.5964542112737523,0.5372941151214716,2.6276415481488149,0.4750796444161519,0.0027461508245836,-0.0004912002644638,2.5990983726926111,8.0000000000000000,0.0000000000000000,0.3248872965865764
2.6964191427773740,0.5375735382509218,2.7276256708858684,0.4753235388842378,0.0027952560882574,-0.0004939721718943,2.6990636947188471,8.0000000000000000,0.0000000000000000,0.3373829618398559
2.7963840742525359,0.5378529717437223,2.8276097946852943,0.4755674415785822,0.0028449109990547,-0.0004967444557645,2.7990290167455916,8.0000000000000000,0.0000000000000000,0.3498786270931989
2.8963489775136959,0.5381423223712914,2.9275949332648294,0.4758192186814904,0.0028945705272281,-0.0004995738288488,2.8989943387717760,8.0000000000000000,0.0000000000000000,0.3623742923464720
2.9963138807427461,0.5384316842853593,3.0275800729992666,0.4760710047461101,0.0029447911164084,-0.0005024037223132,2.9989596607985201,8.0000000000000000,0.0000000000000000,0.3748699575998150
3.0962787544368902,0.5387310755041301,3.1275662408903386,0.4763307478851434,0.0029950164270047,-0.0005052336038551,3.0989249828246508,8.0000000000000000,0.0000000000000000,0.3873656228530813
3.1962436280950168,0.5390304789533480,3.2275524100352180,0.4765905007275988,0.0030458027962244,-0.0005080639455421,3.1988903048513948,8.0000000000000000,0.0000000000000000,0.3998612881064244
3.2962084708634491,0.5393400238765257,3.3275396215875941,0.4768582932482273,0.0030965939788570,-0.0005108338282218,3.2988556268774696,8.0000000000000000,0.0000000000000000,0.4123569533596837
3.3961733135916981,0.5396495819924909,3.4275268344960126,0.4771260962274702,0.0031479341325047,-0.0005136040876032,3.3988209489042140,8.0000000000000000,0.0000000000000000,0.4248526186130268
3.4961381240489282,0.5399693913347928,3.5275150985919668,0.4774020286600297,0.0031992791748796,-0.0005164548956972,3.4987862709302315,8.0000000000000000,0.0000000000000000,0.4373482838662789
3.5961029344615505,0.5402892148472795,3.6275033641409693,0.4776779723298648,0.0032511892924256,-0.0005193062722294,3.5987515929569756,8.0000000000000000,0.0000000000000000,0.4498439491196219
3.6960677111772977,0.5406194025579617,3.7274926963289055,0.4779621255092674,0.0033031044123470,-0.0005220747672986,3.6987169149829335,8.0000000000000000,0.0000000000000000,0.4623396143728667
3.7960324878437217,0.5409496054389468,3.8274820300781038,0.4782462907051080,0.0033555680368953,-0.0005248435980670,3.7986822370096776,8.0000000000000000,0.0000000000000000,0.4748352796262097
3.8959972293634264,0.5412902821768192,3.9274724394959075,0.4785387553352548,0.0034080367309355,-0.0005276748147009,3.8986475590355738,8.0000000000000000,0.0000000000000000,0.4873309448794467
3.9959619708288243,0.5416309750985303,4.0274628505757981,0.4788312327893983,0.0034610664024488,-0.0005305065831973,3.9986128810623183,8.0000000000000000,0.0000000000000000,0.4998266101327898
4.0959266756542831,0.5419822540292780,4.1274543506783834,0.4791320920533501,0.0035141012537883,-0.0005333383602897,4.0985782030881506,8.0000000000000000,0.0000000000000000,0.5123222753860188
4.1958913804201430,0.5423335501794583,4.2274458525523970,0.4794329649513359,0.0035676970843195,-0.0005361705980481,4.1985435251148946,8.0000000000000000,0.0000000000000000,0.5248179406393618
4.2958560470170637,0.5426955444909251,4.3274384577690963,0.4797423019666743,0.0036212981867780,-0.0005389368214404,4.2985088471406607,8.0000000000000000,0.0000000000000000,0.5373136058925826
4.3958207135487903,0.5430575570758309,4.4274310648704072,0.4800516534395001,0.0036754470701337,-0.0005417033874522,4.3984741691674065,8.0000000000000000,0.0000000000000000,0.5498092711459258
4.4957853403562549,0.5434303773352960,4.5274247836413979,0.4803695591819411,0.0037296012939168,-0.0005445575752735,4.4984394911931043,8.0000000000000000,0.0000000000000000,0.5623049363991380
4.5957499670926305,0.5438032169359008,4.6274185044018044,0.4806874802328858,0.0037843208168817,-0.0005474123771679,4.5984048132198483,8.0000000000000000,0.0000000000000000,0.5748006016524810
4.6957145525002977,0.5441869772264958,4.7274133524510811,0.4810140351373097,0.0038390458030462,-0.0005501739839054,4.6983701352454759,8.0000000000000000,0.0000000000000000,0.5872962669056845
4.7956791378306365,0.5445707579504757,4.8274082026095950,0.4813406061962854,0.0038943174558248,-0.0005529358731874,4.7983354572722199,8.0000000000000000,0.0000000000000000,0.5997919321590275
4.8956436802053256,0.5449655686544128,4.9274041883748980,0.4816759017933287,0.0039495946282921,-0.0005557721079588,4.8983007792977755,8.0000000000000000,0.0000000000000000,0.6122875974122219
4.9956082224961422,0.5453604008952727,5.0274001763575651,0.4820112144257341,0.0040054333313153,-0.0005586089433840,4.9982661013245204,8.0000000000000000,0.0000000000000000,0.6247832626655651
5.0955727201559498,0.5457663753775134,5.1273973136186610,0.4823553332956301,0.0040612776741162,-0.0005614337411381,5.0982314233500006,8.0000000000000000,0.0000000000000000,0.6372789279187501
5.1955372177249748,0.5461723725242226,5.2273944532175083,0.4826994700783217,0.0041176811407737,-0.0005642589750927,5.1981967453767455,8.0000000000000000,0.0000000000000000,0.6497745931720932
5.2955016689519256,0.5465896236922774,5.3273927555515934,0.4830524961887920,0.0041740903344187,-0.0005670174918063,5.2981620674021492,8.0000000000000000,0.0000000000000000,0.6622702584252687
5.3954661200808332,0.5470068986697808,5.4273910603456068,0.4834055411058726,0.0042310453130994,-0.0005697763217426,5.3981273894288933,8.0000000000000000,0.0000000000000000,0.6747659236786117
5.4954305231300991,0.5474355367814806,5.5273905363055373,0.4837675663634419,0.0042880060813903,-0.0005726740145377,5.4980927114542180,8.0000000000000000,0.0000000000000000,0.6872615889317772
5.5953949260737259,0.5478641998601278,5.6273900148387410,0.4841296113525118,0.0043455403976578,-0.0005755724727964,5.5980580334809629,8.0000000000000000,0.0000000000000000,0.6997572541851204
5.6953592791383043,0.5483043407361252,5.7273906792747340,0.4845007109238744,0.0044030806565751,-0.0005788552836325,5.6980233555062050,8.0000000000000000,0.0000000000000000,0.7122529194382756
5.7953236320892216,0.5487445077671642,5.8273913464131040,0.4848718311283751,0.0044612713073273,-0.0005821394734921,5.7979886775329499,8.0000000000000000,0.0000000000000000,0.7247485846916187
5.8952879332525541,0.5491962826216680,5.9273932553623254,0.4852520341580895,0.0045194681764384,-0.0005845359349338,5.8979539995581032,8.0000000000000000,0.0000000000000000,0.7372442499447629
5.9952522342936510,0.5496480848744280,6.0273951672426263,0.4856322586262391,0.0045781379532701,-0.0005869307632619,5.9979193215848472,8.0000000000000000,0.0000000000000000,0.7497399151981059
6.0952164817576584,0.5501115894922751,6.1273982885376874,0.4860217002376697,0.0046368136219512,-0.0005921957295901,6.0978846436099179,8.0000000000000000,0.0000000000000000,0.7622355804512397
6.1951807290908372,0.5505751226863128,6.2274014127860386,0.4864111643565883,0.0046965360268918,-0.0005974683285177,6.1978499656366637,8.0000000000000000,0.0000000000000000,0.7747312457045830
6.2951449204784078,0.5510505675113579,6.3274059777728278,0.4868095488357689,0.0047562658496723,-0.0005908694722816,6.2978152876616162,8.0000000000000000,0.0000000000000000,0.7872269109577020
6.3951091117247989,0.5515260423956149,6.4274105463953468,0.4872079558256366,0.0048146689410355,-0.0005842405482376,6.3977806096883603,8.0000000000000000,0.0000000000000000,0.7997225762110450
6.4950732468955588,0.5520131636529956,6.5274162853517215,0.4876157146302465,0.0048730734387625,-0.0005751563793593,6.4977459317133368,8.0000000000000000,0.0000000000000000,0.8122182414641671
6.5950373819202328,0.5525003152507429,6.6274220273569719,0.4880234977975904,0.0049296603263913,-0.0005660645333030,6.5977112537400799,8.0000000000000000,0.0000000000000000,0.8247139067175100
6.6950014613215130,0.5529987498235479,6.7274286168030786,0.4884397818609251,0.0049862470854807,-0.0006264698144051,6.6976765757651142,8.0000000000000000,0.0000000000000000,0.8372095719706393
6.7949655405733447,0.5534972147110037,6.8274352085260555,0.4888560887641308,0.0050549108398643,-0.0006870660116841,6.7976418977918573,8.0000000000000000,0.0000000000000000,0.8497052372239822
6.8949295505823551,0.5540093770970516,6.9274491450098878,0.4892710318696489,0.0051236126357022,-0.0005975257063404,6.8976072198160034,8.0000000000000000,0.0000000000000000,0.8622009024770004
6.9948935603996736,0.5545215774032862,7.0274631018269726,0.4896859711996263,0.0051743745391699,-0.0005075673731464,6.9975725418427475,8.0000000000000000,0.0000000000000000,0.8746965677303434
7.0948575178979807,0.5550438885135359,7.1274791426967639,0.4901075889749139,0.0052250909075151,-0.0004634749657643,7.0975378638680340,8.0000000000000000,0.0000000000000000,0.8871922329835042
7.1948214752471751,0.5555662284402045,7.2274951895062340,0.4905292257841851,0.0052670373875772,-0.0004195023712374,7.1975031858947780,8.0000000000000000,0.0000000000000000,0.8996878982368472
7.2947853885759173,0.5560969258209090,7.3275105896953177,0.4909600779529517,0.0053089622867781,-0.0004202133072673,7.2974685079204997,8.0000000000000000,0.0000000000000000,0.9121835634900625
7.3947493017756019,0.5566276477034027,7.4275259879886848,0.4913909571386536,0.0053510509047385,-0.0004210517309599,7.3974338299472437,8.0000000000000000,0.0000000000000000,0.9246792287434055
7.4947131700775049,0.5571667597681327,7.5275421773305071,0.4918282399679838,0.0053931434305283,-0.0003995524096982,7.4973991519729273,8.0000000000000000,0.0000000000000000,0.9371748939966159
7.5946770382441118,0.5577058971159246,7.6275583690560822,0.4922655420941198,0.0054309336753422,-0.0003779840877450,7.5973644739996704,8.0000000000000000,0.0000000000000000,0.9496705592499588
7.6946408655143275,0.5582525644972199,7.7275750949153306,0.4927091123953947,0.0054687140326328,-0.0003592035579036,7.6973297960255378,8.0000000000000000,0.0000000000000000,0.9621662245031922
7.7946046926579635,0.5587992551847765,7.8275918224277783,0.4931527020973436,0.0055027494740199,-0.0003404283703659,7.7972951180522818,8.0000000000000000,0.0000000000000000,0.9746618897565352
7.8945684824845967,0.5593527271907687,7.9276089030635246,0.4936020899379086,0.0055367760959739,-0.0003219337238938,7.8972604400782958,8.0000000000000000,0.0000000000000000,0.9871575550097870
7.9945322721926804,0.5599062207397646,8.0276259848210767,0.4940514961980955,0.0055671138907802,-0.0003034369326183,7.9972257621050407,8.0000000000000000,0.0000000000000000,0.9996532202631301
8.0944960282531984,0.5604657581066227,8.1276433151784158,0.4945061981168047,0.0055974424373417,-0.0002848568712072,8.0971910841311896,8.0000000000000000,0.0000000000000000,1.0121488855163987
8.1944597842040725,0.5610253151674979,8.2276606463458251,0.4949609172916248,0.0056240655085036,-0.0002662735177834,8.1971564061579318,8.0000000000000000,0.0000000000000000,1.0246445507697415
8.2944235103298034,0.5615901752179434,8.3276781009838405,0.4954204398141749,0.0056506786732464,-0.0002478316880338,8.2971217281842069,8.0000000000000000,0.0000000000000000,1.0371402160230259
8.3943872363559109,0.5621550529818343,8.4276955560342817,0.4958799783812290,0.0056736146575089,-0.0002293873143317,8.3970870502109527,8.0000000000000000,0.0000000000000000,1.0496358812763691
8.4943509364653380,0.5627244985645831,8.5277130244014252,0.4963438115566383,0.0056965402267384,-0.0002108211859453,8.4970523722373397,8.0000000000000000,0.0000000000000000,1.0621315465296675
8.5943146364860787,0.5632939597785215,8.6277304928141376,0.4968076594283043,0.0057157642729950,-0.0001922516251255,8.5970176942640855,8.0000000000000000,0.0000000000000000,1.0746272117830107
8.6942783146276241,0.5638672487744387,8.7277478539405866,0.4972753081944026,0.0057349772179700,-0.0001737686209955,8.6969830162905737,8.0000000000000000,0.0000000000000000,1.0871228770363217
8.7942419926925108,0.5644405511820918,8.8277652146911301,0.4977429702780285,0.0057505059453069,-0.0001552829007255,8.7969483383173195,8.0000000000000000,0.0000000000000000,1.0996185422896649
8.8942056529810340,0.5650169447951354,8.9277823538146510,0.4982139296246946,0.0057660230283225,-0.0001367638294544,8.8969136603438930,8.0000000000000000,0.0000000000000000,1.1121142075429866
8.9941693132058198,0.5655933494918941,9.0277994921435152,0.4986849007939088,0.0057778492258129,-0.0001182416228076,8.9968789823706388,8.0000000000000000,0.0000000000000000,1.1246098727963298
9.0941329598333613,0.5661721074847536,9.1278162924843560,0.4991586700552982,0.0057896631521244,-0.0000997041290361,9.0968443043972815,8.0000000000000000,0.0000000000000000,1.1371055380496602
9.1940966064110370,0.5667508741079825,9.2278330915856746,0.4996324495782814,0.0057977831365459,-0.0000811635586722,9.1968096264240256,8.0000000000000000,0.0000000000000000,1.1496012033030032
9.2940602436264381,0.5673312555072726,9.3278494341888631,0.5001085302986591,0.0058058902346834,-0.0000626817410293,9.2967749484507216,8.0000000000000000,0.0000000000000000,1.1620968685563402
9.3940238808067367,0.5679116429606114,9.4278657750805674,0.5005846196465866,0.0058103151374003,-0.0000441971259577,9.3967402704774639,8.0000000000000000,0.0000000000000000,1.1745925338096830
9.4939875128819953,0.5684929090186187,9.5278815458064461,0.5010625067208307,0.0058147265945414,-0.0000256617373573,9.4967055925041937,8.0000000000000000,0.0000000000000000,1.1870881990630242
9.5939511449376962,0.5690741784425370,9.6278973143480329,0.5015404006821162,0.0058154457050776,-0.0000071231364482,9.5966709145309377,8.0000000000000000,0.0000000000000000,1.1995838643163672
9.6939147761768751,0.5696555882703460,9.7279123949360926,0.5020195954331098,0.0058161507277992,0.0000113826256612,9.6966362365576799,8.0000000000000000,0.0000000000000000,1.2120795295697100
9.7938784074128602,0.5702369986475276,9.8279274728323252,0.5024987952738371,0.0058131699693982,0.0000298912792722,9.7966015585844239,8.0000000000000000,0.0000000000000000,1.2245751948230530
9.8938420421163435,0.5708178125404590,9.9279417470434890,0.5029787954918589,0.0058101745450827,0.0000484036308086,9.8965668806111626,8.0000000000000000,0.0000000000000000,1.2370708600763953
9.9938056768336754,0.5713986240506469,10.0279560180442129,0.5034587989071047,0.0058034926003161,0.0000669190154658,9.9965322026379067,8.0000000000000000,0.0000000000000000,1.2495665253297383
10.0937693192901321,0.5719781020405548,10.1279693694817094,0.5039391031844639,0.0057967953832212,0.0000854444381972,10.0964975246646134,8.0000000000000000,0.0000000000000000,1.2620621905830767
10.1937329617781387,0.5725575745943640,10.2279827171706046,0.5044194086882883,0.0057864096387565,0.0001039729220591,10.1964628466913574,8.0000000000000000,0.0000000000000000,1.2745578558364197
10.2936966162496013,0.5731349761904541,10.3279950281695196,0.5048995171978879,0.0057760080099498,0.0001224780680585,10.2964281687180144,8.0000000000000000,0.0000000000000000,1.2870535210897518
