# x_m,y_m,w_tr_right_m,w_tr_left_m,psi,kappa,s,velocity,acceleration,time
-0.0001790801109838,0.2898691350789501,1.1898693861625218,0.8101306138374782,-0.0022278147611463,0.0000139302243577,0.0000000000000000,8.0000000000000000,0.0000000000000000,0.0000000000000000
0.0997921456246373,0.2896464173381051,1.1896466850563974,0.8103533149436026,-0.0022292073862060,0.0000230865749538,0.0999714738226590,8.0000000000000000,0.0000000000000000,0.0124964342278324
0.1997633707395625,0.2894234211523925,1.1894236816533281,0.8105763183466718,-0.0022324307589936,0.0000344757197086,0.1999429476453345,8.0000000000000000,0.0000000000000000,0.0249928684556668
0.2997345950373100,0.2892000589224950,1.1892003207244743,0.8107996792755255,-0.0022361005632268,0.0000390513706636,0.2999144214680021,8.0000000000000000,0.0000000000000000,0.0374893026835003
0.3997058185127942,0.2889763289871383,1.1889765831025061,0.8110234168974938,-0.0022402388051537,0.0004338674965623,0.3998858952906340,8.0000000000000000,0.0000000000000000,0.0499857369113292
0.4996770409586234,0.2887521393470243,1.1887524030564225,0.8112475969435775,-0.0023228493093770,0.0008255897877988,0.4998573691134611,8.0000000000000000,0.0000000000000000,0.0624821711391826
0.5996482261045748,0.2885118920684385,1.1885121807909120,0.8114878192090882,-0.0024053096608720,0.0004362705116176,0.5998288429359518,8.0000000000000000,0.0000000000000000,0.0749786053669940
0.6996194102172332,0.2882712151071639,1.1882714946512198,0.8117285053487804,-0.0024100785214405,0.0000499691094026,0.6998003167586715,8.0000000000000000,0.0000000000000000,0.0874750395948339
0.7995905930674034,0.2880300143313029,1.1880302955506234,0.8119697044493768,-0.0024153006318972,0.0000547073990196,0.7997717905813397,8.0000000000000000,0.0000000000000000,0.0999714738226675
0.8995617746607901,0.2877882932489099,1.1877885648172646,0.8122114351827355,-0.0024210168800585,0.0004528233796262,0.8997432644039236,8.0000000000000000,0.0000000000000000,0.1124679080504905
0.9995329547472374,0.2875459495528836,1.1875462243571564,0.8124537756428435,-0.0025058394731825,0.0008474347979374,0.9997147382269290,8.0000000000000000,0.0000000000000000,0.1249643422783661
1.0995040938949752,0.2872872688443300,1.1872875768512572,0.8127124231487426,-0.0025904554914953,0.0004547883858502,1.0996862120492417,8.0000000000000000,0.0000000000000000,0.1374607765061552
1.1994752315373061,0.2870280068254456,1.1870283036957099,0.8129716963042903,-0.0025967712036041,0.0000654690155387,1.1996576858720092,8.0000000000000000,0.0000000000000000,0.1499572107340011
1.2994463674099193,0.2867680633390436,1.1867683621776590,0.8132316378223411,-0.0026035455594415,0.0000703575016595,1.2996291596946783,8.0000000000000000,0.0000000000000000,0.1624536449618348
1.3994175015301722,0.2865074468400640,1.1865077340531933,0.8134922659468069,-0.0026108386898749,0.0004717618916817,1.3996006335172100,8.0000000000000000,0.0000000000000000,0.1749500791896512
1.4993886336010722,0.2862460451486213,1.1862463290505323,0.8137536709494675,-0.0026978710226513,0.0008692758818568,1.4995721073404042,8.0000000000000000,0.0000000000000000,0.1874465134175505
1.5993597208423058,0.2859680272116532,1.1859683523079716,0.8140316476920281,-0.0027846442720103,0.0004733219244069,1.5995435811625283,8.0000000000000000,0.0000000000000000,0.1999429476453160
1.6993308060419987,0.2856892758842915,1.1856895879159737,0.8143104120840262,-0.0027925084034022,0.0000809764534558,1.6995150549853482,8.0000000000000000,0.0000000000000000,0.2124393818731685
1.7993018888986734,0.2854096855758253,1.1854099998028416,0.8145900001971583,-0.0028008349428041,0.0000860005253699,1.7994865288080177,8.0000000000000000,0.0000000000000000,0.2249358161010022
1.8992729694420922,0.2851292694221434,1.1851295700667772,0.8148704299332228,-0.0028097036019437,0.0004906837736432,1.8994580026304937,8.0000000000000000,0.0000000000000000,0.2374322503288117
1.9992440473245821,0.2848479058948039,1.1848481965048883,0.8151518034951118,-0.0028989437028684,0.0008911201478614,1.9994294764538867,8.0000000000000000,0.0000000000000000,0.2499286845567358
2.0992150762264195,0.2845496468870501,1.1845499863329372,0.8154500136670626,-0.0029878767910132,0.0004918774196696,2.0994009502758111,8.0000000000000000,0.0000000000000000,0.2624251187844764
2.1991861024819772,0.2842505018908942,1.1842508262597651,0.8157491737402349,-0.0029972911240370,0.0000964925271105,2.1993724240986881,8.0000000000000000,0.0000000000000000,0.2749215530123360
2.2991571257510208,0.2839503605620736,1.1839506871592684,0.8160493128407316,-0.0030071697913094,0.0001016351865455,2.2993438979213585,8.0000000000000000,0.0000000000000000,0.2874179872401698
2.3991281460762970,0.2836492404049670,1.1836495513668521,0.8163504486331475,-0.0030176123628194,0.0005095691161383,2.3993153717437736,8.0000000000000000,0.0000000000000000,0.2999144214679717
2.4990991630559756,0.2833470111670903,1.1833473050677537,0.8166526949322462,-0.0031090545424195,0.0009129341686461,2.4992868455673771,8.0000000000000000,0.0000000000000000,0.3124108556959221
2.5990701266385354,0.2830276078791327,1.1830279584156462,0.8169720415843540,-0.0032001471115046,0.0005104412709938,2.5992583193890924,8.0000000000000000,0.0000000000000000,0.3249072899236365
2.6990410868967820,0.2827071654128334,1.1827074993294162,0.8172925006705839,-0.0032111136747415,0.0001120183851851,2.6992297932120293,8.0000000000000000,0.0000000000000000,0.3374037241515037
2.7990120434507388,0.2823855694491617,1.1823859059731030,0.8176140940268973,-0.0032225443976290,0.0001172603291634,2.7992012670347002,8.0000000000000000,0.0000000000000000,0.3499001583793375
2.8989829963564961,0.2820628415022611,1.1820631607939520,0.8179368392060478,-0.0032345590505962,0.0005284909045134,2.8991727408570505,8.0000000000000000,0.0000000000000000,0.3623965926071313
2.9989539451550153,0.2817388433059793,1.1817391387295908,0.8182608612704091,-0.0033282124268816,0.0009348693343495,2.9991442146808733,8.0000000000000000,0.0000000000000000,0.3748930268351092
3.0989248358571126,0.2813973901303120,1.1813977476705557,0.8186022523294444,-0.0034214795809693,0.0005290918231112,3.0991156885023683,8.0000000000000000,0.0000000000000000,0.3873894610627960
3.1988957224787837,0.2810547439280063,1.1810550813193232,0.8189449186806766,-0.0034340006055691,0.0001275554452049,3.1990871623253692,8.0000000000000000,0.0000000000000000,0.3998858952906711
3.2988666046000246,0.2807107872764787,1.1807111255293909,0.8192888744706088,-0.0034469833926718,0.0001328736820584,3.2990586361480410,8.0000000000000000,0.0000000000000000,0.4123823295185051
3.3988374822902703,0.2803655452728164,1.1803658627094791,0.8196341372905208,-0.0034605677612243,0.0005471186768384,3.3990301099703228,8.0000000000000000,0.0000000000000000,0.4248787637462904
3.4988083550311289,0.2800188725387969,1.1800191571261314,0.8199808428738687,-0.0035563759136312,0.0009562768709808,3.4990015837943766,8.0000000000000000,0.0000000000000000,0.4373751979742971
3.5987791647310545,0.2796544744914212,1.1796548349257423,0.8203451650742579,-0.0036517685775732,0.0005475105351468,3.5989730576156407,8.0000000000000000,0.0000000000000000,0.4498716322019551
3.6987499695114363,0.2792887287880959,1.1792890742747406,0.8207109257252592,-0.0036658467838948,0.0001431042965178,3.6989445314387104,8.0000000000000000,0.0000000000000000,0.4623680664298388
3.7987207689130016,0.2789215159214897,1.1789218691035250,0.8210781308964746,-0.0036803812724397,0.0001484776900551,3.7989160052613835,8.0000000000000000,0.0000000000000000,0.4748645006576729
3.8986915630184282,0.2785528641692886,1.1785532016237674,0.8214467983762326,-0.0036955338509039,0.0005669475669556,3.8988874790835895,8.0000000000000000,0.0000000000000000,0.4873609348854487
3.9986623512472743,0.2781826216720814,1.1781829254199270,0.8218170745800727,-0.0037937384401379,0.0009801303340053,3.9988589529078937,8.0000000000000000,0.0000000000000000,0.4998573691134867
4.0986330710166561,0.2777943347455805,1.1777946910416170,0.8222053089583826,-0.0038915039989615,0.0005671770722018,4.0988304267289069,8.0000000000000000,0.0000000000000000,0.5123538033411134
4.1986037849393538,0.2774045448556258,1.1774048543911420,0.8225951456088579,-0.0039071414957901,0.0001586687771661,4.1988019005520538,8.0000000000000000,0.0000000000000000,0.5248502375690067
4.2985744925178277,0.2770131313456821,1.1770134182346874,0.8229865817653126,-0.0039232287019675,0.0001640573832045,4.2987733743747221,8.0000000000000000,0.0000000000000000,0.5373466717968403
4.3985451938465099,0.2766201249569605,1.1766203643517128,0.8233796356482870,-0.0039399436125709,0.0005829991168806,4.3987448481968583,8.0000000000000000,0.0000000000000000,0.5498431060246073
4.4985158882861054,0.2762253694443486,1.1762255384381604,0.8237744615618396,-0.0040397952638720,0.0009965608733173,4.4987163220213935,8.0000000000000000,0.0000000000000000,0.5623395402526742
4.5984865091352738,0.2758123985843830,1.1758127502135911,0.8241872497864087,-0.0041391989310899,0.0005832019110289,4.5986877958421761,8.0000000000000000,0.0000000000000000,0.5748359744802720
4.6984571231176169,0.2753977681724258,1.1753981966447593,0.8246018033552408,-0.0041564023730347,0.0001742227770770,4.6986592696653879,8.0000000000000000,0.0000000000000000,0.5873324087081735
4.7984277297004869,0.2749813576351534,1.1749818886449446,0.8250181113550553,-0.0041740335466858,0.0001797252238030,4.7986307434880864,8.0000000000000000,0.0000000000000000,0.5998288429360108
4.8983983289985833,0.2745632020249498,1.1745638077765888,0.8254361922234109,-0.0041923371640480,0.0006347710991935,4.8986022173100467,8.0000000000000000,-4.7974797976310413,0.6123252771637558
4.9983689202732471,0.2741431318404863,1.1741437764919034,0.8258562235080965,-0.0043009515513397,0.0010838817797282,4.9985736911351619,7.9398222743314104,-8.4316648774606442,0.6248688892699089
5.0983394263754391,0.2737032597495468,1.1737035842924135,0.8262964157075864,-0.0044090516819859,0.0006345318464517,5.0985451649553717,7.8329385174947941,-8.4610648413612406,0.6375453604520518
5.1983099244925945,0.2732615759071226,1.1732614550298717,0.8267385449701282,-0.0044278217190930,0.0001896352433443,5.1985166387787025,7.7241954645284743,-8.4886445432684567,0.6503975315446001
5.2982804140141893,0.2728179509162637,1.1728174157138653,0.8271825842861348,-0.0044469679115178,0.0001958987395701,5.2984881126015875,7.6135373488769318,-8.4526823280843804,0.6634335486716566
5.3982508951427128,0.2723724389653865,1.1723714499931694,0.8276285500068308,-0.0044669902905223,0.0008408159559327,5.3984595864227076,7.5017262508427560,-8.4193339510773058,0.6766614322823630
5.4982213668244491,0.2719248106808004,1.1719233257545540,0.8280766742454460,-0.0046150831321774,0.0014776028522354,5.4984310602507449,7.3886744613025179,-8.4193232000209957,0.6900890727818555
5.5981917116099389,0.2714496889246502,1.1714497225895297,0.8285502774104704,-0.0047624265602475,0.0008370268421783,5.5984025340680938,7.2738659595432917,-8.4557080180491724,0.7037253828547292
5.6981620470368384,0.2709726006759401,1.1709739957504401,0.8290260042495599,-0.0047824407462576,0.0002087432603275,5.6983740078921992,7.1567078193692728,-8.4893084544380564,0.7175808920473289
5.7981323727298504,0.2704934772699910,1.1704962132286885,0.8295037867713116,-0.0048041633030189,0.0001985726087515,5.7983454817155105,7.0371222425050677,-8.3176145178013741,0.7316675019880583
5.8981026873281985,0.2700120457991949,1.1700163114508075,0.8299836885491925,-0.0048221439389720,-0.0038109683981441,5.8983169555325636,6.9179506424942137,-8.1416385289851565,0.7459951195706961
5.9980729957505003,0.2695293273333767,1.1695333052891268,0.8304666947108731,-0.0040421870480389,-0.0077516783929072,5.9982884293796932,6.7992777473375545,-8.1413472230720973,0.7605711652566068
6.0980439400660655,0.2692038414551797,1.1689017022125143,0.8310982977874856,-0.0032722505089871,-0.0038271631007579,6.0982599035530933,6.6785007986930411,-8.3291763602384350,0.7754061729445529
6.1980148712163601,0.2688750650944162,1.1682669614772196,0.8317330385227806,-0.0032769727830466,0.0002323094121795,6.1982313753285574,6.5526340413090916,-7.4210162701216698,0.7905177220269818
6.2979858200222090,0.2685486350110481,1.1676318653538280,0.8323681346461722,-0.0033186991389882,0.0260289404358881,6.2982028570708071,6.4384185087805452,-5.4272801372105359,0.8059085429565084
6.3979566957625122,0.2682115158973872,1.1669901833396934,0.8330098166603068,-0.0084812752916918,-0.0761175498825422,6.3981743012215242,6.3535885000488523,0.0000000000000000,0.8215388414830357
6.4979191645898409,0.2668529046164761,1.1653494433374012,0.8346505566625989,0.0119004831848692,-0.2105623691364572,6.4981460022106905,6.3535885000488523,0.0000000000000000,0.8372735244875138
6.5978205217864909,0.2705901042857279,1.1597948702201257,0.8402051297798744,0.0336191830061565,-0.0880793900105608,6.5981172372290722,6.3535885000488523,4.9444035363005403,0.8530081341522117
6.6977475134332733,0.2735735026209690,1.1531527716529302,0.8468472283470698,0.0295113188698661,0.0269722652408661,6.6980887547988424,6.4309164104313803,7.3845164990166143,0.8686476162079958
6.7976764281509379,0.2764898284911463,1.1465184167655309,0.8534815832344690,0.0282262679633856,-0.0409940611602968,6.7980602154925389,6.5447053164983995,6.7440945044449077,0.8840567369110469
6.8976107446909225,0.2792163944278105,1.1399889661055180,0.8600110338944823,0.0377077930283758,0.0262054742370012,6.8980317203532779,6.6469242686273491,7.3422001609372467,0.8992135458883793
6.9974666342598049,0.2840270489059665,1.1344128856729874,0.8655871143270127,0.0229866614232115,0.1652335131356257,6.9980034217397256,6.7564507484984082,0.9571518042392358,0.9141309381509567
7.0974376295234878,0.2838105565657925,1.1340573608449254,0.8659426391550747,0.0046705201022825,0.0581418360615313,7.0979746514157913,6.7705983489347252,5.8347199766686364,0.9289118750657253
7.1974024979858990,0.2849608601666540,1.1350874041968737,0.8649125958031265,0.0113616247940980,-0.0331027652895264,7.1979461379761167,6.8562098321200180,6.9439180113652146,0.9435846414585648
7.2973676772351359,0.2860821844993128,1.1361791989138268,0.8638208010861733,0.0112891848011218,0.0001537528869343,7.2979176060587205,6.9567234110421579,8.4925589751888673,0.9580596941244557
7.3973326998464257,0.2872180050513961,1.1372679153584875,0.8627320846415125,0.0113308829893612,0.0000862920755525,7.3978890811603826,7.0777134665100014,8.4956772823584910,0.9723062899763441
7.4972977905932163,0.2883476661748933,1.1383570978585178,0.8616429021414825,0.0112719313090999,0.0005179208516677,7.4978605546029007,7.1967130459422952,8.4731754917553417,0.9863133638654853
7.5972629452505434,0.2894717004938478,1.1394790687153389,0.8605209312846611,0.0112273283677755,0.0003850996058684,7.5978320285282832,7.3134691050905829,8.4794022427126308,1.0000928564845033
7.6972281367236572,0.2905924441426347,1.1405981373208240,0.8594018626791760,0.0111949333587369,0.0003227338057040,7.6978035023224738,7.4284740713897595,8.4821908298636508,1.0136557189372208
7.7971933639026769,0.2917100017140012,1.1417139665627409,0.8582860334372588,0.0111628000193649,0.0003333007967310,7.7977749761531534,7.5417624774623500,8.4810424568672715,1.0270117502202865
7.8971586272214198,0.2928243209299167,1.1428264834920165,0.8571735165079835,0.0111282922149842,0.0006455224737478,7.8977464499729413,7.6533591248772250,8.4621892273699970,1.0401701146527760
7.9971239312858637,0.2939349793375585,1.1439353813203994,0.8560646186796003,0.0110337323531926,0.0009372903910833,7.9977179237982039,7.7631089746337043,8.4435133876193706,1.0531395539796000
8.0970894035573604,0.2950303931306996,1.1450316167031149,0.8549683832968850,0.0109408876113910,0.0006408261258329,8.0976893976186979,7.8710915321323194,8.4602982057118830,1.0659283721576998
8.1970549121341225,0.2961224890135905,1.1461241725195350,0.8538758274804650,0.0109056036886663,0.0003616468407270,8.1976608714421246,7.9778229404033860,1.7722112019793188,1.0785439331788240
8.2970204614597787,0.2972108484560349,1.1472131007862965,0.8527868992137038,0.0108685788760492,0.0003784899515499,8.2976323452646916,8.0000000000000000,0.0000000000000000,1.0910577123332754
8.3969860506305007,0.2982955419274783,1.1482982618554318,0.8517017381445685,0.0108299272920995,0.0006260434557545,8.3976038190868607,8.0000000000000000,0.0000000000000000,1.1035541465610466
8.4969516837926911,0.2993761737130520,1.1493793227857145,0.8506206772142854,0.0107434059021509,0.0008591818272312,8.4975752929110158,8.0000000000000000,0.0000000000000000,1.1160505807890659
8.5969174591640982,0.3004435688448866,1.1504468066487303,0.8495531933512696,0.0106581399449996,0.0006258944437952,8.5975467667321723,8.0000000000000000,0.0000000000000000,1.1285470150167105
8.6968832751540397,0.3015071532840330,1.1515101803274213,0.8484898196725790,0.0106182627221443,0.0004069407447050,8.6975182405554285,8.0000000000000000,0.0000000000000000,1.1410434492446175
8.7968491353384266,0.3025665756974913,1.1525694764736527,0.8474305235263472,0.0105767750129862,0.0004216846912636,8.7974897143779867,8.0000000000000000,0.0000000000000000,1.1535398834724373
8.8968150392347223,0.3036218654275776,1.1536245695421892,0.8463754304578108,0.0105339498419963,0.0005850689495746,8.8974611882003618,8.0000000000000000,0.0000000000000000,1.1660363177002342
8.9967809897932725,0.3046727257270593,1.1546752304738679,0.8453247695261319,0.0104597946026321,0.0007390806733245,8.9974326620238649,8.0000000000000000,0.0000000000000000,1.1785327519281721
9.0967470491000970,0.3057131894545244,1.1557159015579870,0.8442840984420128,0.0103861758736241,0.0005910002544917,9.0974041358456699,8.0000000000000000,0.0000000000000000,1.1910291861558977
9.1967131533006121,0.3067493310102155,1.1567520546753747,0.8432479453246249,0.0103416282696902,0.0004523707326700,9.1973756096687147,8.0000000000000000,0.0000000000000000,1.2035256203837783
9.2966793049117964,0.3077808882367372,1.1577836794284782,0.8422163205715216,0.0102957275359055,0.0004652013046279,9.2973470834913101,8.0000000000000000,0.0000000000000000,1.2160220546116027
9.3966455038098111,0.3088078527529964,1.1588106632044828,0.8411893367955172,0.0102486145495946,0.0005795378574107,9.3973185573137723,8.0000000000000000,0.0000000000000000,1.2285184888394105
9.4966117521773175,0.3098299905670942,1.1598328108875613,0.8401671891124385,0.0101798530284225,0.0006873006237844,9.4972900311369841,8.0000000000000000,0.0000000000000000,1.2410149230673120
9.5965780913609446,0.3108432074178776,1.1608461272022219,0.8391538727977781,0.0101111936369567,0.0005890282816121,9.5972615049590839,8.0000000000000000,0.0000000000000000,1.2535113572950745
9.6965444791444018,0.3118516179788190,1.1618545007550893,0.8381454992449106,0.0100620809775507,0.0004974603309240,9.6972329787820293,8.0000000000000000,0.0000000000000000,1.2660077915229426
9.7965109173698171,0.3128550155991984,1.1628578978538151,0.8371421021461848,0.0100117299520550,0.0005086645902998,9.7972044526046176,8.0000000000000000,0.0000000000000000,1.2785042257507662
9.8964774061950571,0.3138533593347602,1.1638562156884602,0.8361437843115396,0.0099603770800034,0.0005654469455135,9.8971759264272094,8.0000000000000000,0.0000000000000000,1.2910006599785901
9.9964439469482258,0.3148464898224452,1.1648493180333381,0.8351506819666621,0.0098986728230319,0.0006193560134979,9.9971474002500980,8.0000000000000000,0.0000000000000000,1.3034970942064512
10.0964105582161885,0.3158324968346045,1.1658353813077134,0.8341646186922866,0.0098365412130228,0.0005793558027592,10.0971188740725246,8.0000000000000000,0.0000000000000000,1.3159935284342545
10.1963772216070598,0.3168132051504050,1.1668160834623702,0.8331839165376298,0.0097828347160929,0.0005426493284554,10.1970903478953332,8.0000000000000000,0.0000000000000000,1.3284899626621056
10.2963439382084765,0.3177884744438961,1.1677913606510641,0.8322086393489357,0.0097280423067536,0.0005520882246849,10.2970618217179339,8.0000000000000000,0.0000000000000000,1.3409863968899307
