# x_m,y_m,w_tr_right_m,w_tr_left_m,psi,kappa,s,velocity,acceleration,time
-0.0016728205474042,0.0764842559261480,0.9765004332491434,0.9234995667508569,0.0256549934472223,-0.0020378479868969,0.0000000000000000,8.0000000000000000,0.0000000000000000,0.0000000000000000
0.0982793475834286,0.0790490908758406,0.9790676496639288,0.9209323503360713,0.0258587478215495,-0.0030327268832240,0.0999850703473945,8.0000000000000000,0.0000000000000000,0.0124981337934243
0.1982304622238866,0.0816546569944416,0.9816727284832096,0.9183272715167907,0.0262614482687540,-0.0039491871386308,0.1999701406962640,8.0000000000000000,0.0000000000000000,0.0249962675870330
0.2981805322173793,0.0842999926691972,0.9843185810266792,0.9156814189733210,0.0266484673293006,-0.0037903315658239,0.2999552110444725,8.0000000000000000,0.0000000000000000,0.0374944013805591
0.3981296001065335,0.0869829239724565,0.9870011115734968,0.9129988884265033,0.0270194014052532,0.0005580762556708,0.3999402813914437,8.0000000000000000,0.0000000000000000,0.0499925351739305
0.4980776801201053,0.0897024086865661,0.9897225565916863,0.9102774434083138,0.0265368687419272,0.0049320662835231,0.4999253517545216,8.0000000000000000,0.0000000000000000,0.0624906689693152
0.5980292906539753,0.0922888813751651,0.9923116054231310,0.9076883945768691,0.0260331354166199,0.0009437501931807,0.5999104220864631,8.0000000000000000,0.0000000000000000,0.0749888027608079
0.6979800597217722,0.0949076703684721,0.9949298168188352,0.9050701831811649,0.0263481468830276,-0.0030645523340806,0.6998954924371686,8.0000000000000000,0.0000000000000000,0.0874869365546461
0.7979300208980975,0.0975571143468259,0.9975797473006820,0.9024202526993181,0.0266459543780453,-0.0028887541819528,0.7998805627854130,8.0000000000000000,0.0000000000000000,0.0999850703481766
0.8978792124416609,0.1002354350482784,1.0002575981017132,0.8997424018982868,0.0269258114632223,0.0007835016704865,0.8998656331308988,8.0000000000000000,0.0000000000000000,0.1124832041413624
0.9978276750528653,0.1029408220188989,1.0029646221999211,0.8970353778000790,0.0264892774387468,0.0044490965761114,0.9998507035014503,8.0000000000000000,0.0000000000000000,0.1249813379376813
1.0977791668386929,0.1055318792644523,1.0055582138048464,0.8944417861951536,0.0260361249949299,0.0011315770396895,1.0998357738262849,8.0000000000000000,0.0000000000000000,0.1374794717282856
1.1977300402881208,0.1081466813557466,1.0081724018250728,0.8918275981749274,0.0262629958189335,-0.0021776524334620,1.1998208441782139,8.0000000000000000,0.0000000000000000,0.1499776055222767
1.2976803461377233,0.1107830904882430,1.0108092295188407,0.8891907704811594,0.0264715904584454,-0.0019906227819922,1.2998059145264564,8.0000000000000000,0.0000000000000000,0.1624757393158071
1.3976301200143519,0.1134395907834150,1.0134652394012837,0.8865347605987164,0.0266610609367148,0.0010013604406276,1.3997909848710206,8.0000000000000000,0.0000000000000000,0.1749738731088776
1.4975794196676862,0.1161138749908427,1.0161408071444724,0.8838591928555277,0.0262713482702255,0.0039667751555741,1.4997760552426220,8.0000000000000000,0.0000000000000000,0.1874720069053278
1.5975312337073548,0.1186924711006528,1.0187216856899566,0.8812783143100433,0.0258678243507464,0.0013263099215813,1.5997611255667361,8.0000000000000000,0.0000000000000000,0.1999701406958420
1.6974826590669629,0.1212860905791587,1.0213147034109125,0.8786852965890876,0.0260061258886259,-0.0012886012820021,1.6997461959193472,8.0000000000000000,0.0000000000000000,0.2124682744899184
1.7974337560594094,0.1238923335697923,1.0239212653811121,0.8760787346188879,0.0261255061304155,-0.0010958789246849,1.7997312662674729,8.0000000000000000,0.0000000000000000,0.2249664082834341
1.8973845593079897,0.1265098174245820,1.0265382825392364,0.8734617174607637,0.0262252689513771,0.0012119233571123,1.8997163366118324,8.0000000000000000,0.0000000000000000,0.2374645420764790
1.9973351343185060,0.1291360031705160,1.0291653809666972,0.8708346190333029,0.0258831576461611,0.0034850652218297,1.9997014069798877,8.0000000000000000,0.0000000000000000,0.2499626758724860
2.0972877050955891,0.1316850978179921,1.0317163284211932,0.8682836715788070,0.0255283599686333,0.0015274581116710,2.0996864773077601,8.0000000000000000,0.0000000000000000,0.2624608096634700
2.1972401184560182,0.1342403584445633,1.0342710419359529,0.8657289580640470,0.0255777116326865,-0.0003976422784755,2.1996715476605071,8.0000000000000000,0.0000000000000000,0.2749589434575634
2.2971924371620882,0.1367993187315076,1.0368301970084355,0.8631698029915646,0.0256078765510086,-0.0002043261387438,2.2996566180083842,8.0000000000000000,0.0000000000000000,0.2874570772510480
2.3971446961743594,0.1393606094659952,1.0393910833779136,0.8606089166220865,0.0256185707593983,0.0014157686288122,2.3996416883533249,8.0000000000000000,0.0000000000000000,0.2999552110441656
2.4970969601393467,0.1419217075745605,1.0419527216292188,0.8580472783707813,0.0253247650990969,0.0030039142126781,2.4996267587150953,8.0000000000000000,0.0000000000000000,0.3124533448393869
2.5970507069281688,0.1444242647910467,1.0444565603225537,0.8555434396774464,0.0250178776116503,0.0017342610938476,2.5996118290493495,8.0000000000000000,0.0000000000000000,0.3249514786311687
2.6970045239944898,0.1469240142225209,1.0469558521866040,0.8530441478133961,0.0249779646641730,0.0004948887532742,2.6995968994016164,8.0000000000000000,0.0000000000000000,0.3374496124252021
2.7969584702469921,0.1494185925340816,1.0494504840418470,0.8505495159581533,0.0249189146380273,0.0006843410816538,2.7995819697491471,8.0000000000000000,0.0000000000000000,0.3499477462186434
2.8969125818308319,0.1519065373969799,1.0519381190079240,0.8480618809920761,0.0248411168817921,0.0016137064938766,2.8995670400954521,8.0000000000000000,0.0000000000000000,0.3624458800119315
2.9968669150256790,0.1543855632930923,1.0544173276991449,0.8455826723008552,0.0245962215233968,0.0025232553793887,2.9995521104500811,8.0000000000000000,0.0000000000000000,0.3749440138062601
3.0968222331876705,0.1568245512634451,1.0568569215475425,0.8431430784524576,0.0243365411485637,0.0019457666252083,3.0995371807915300,8.0000000000000000,0.0000000000000000,0.3874421475989412
3.1967778404070026,0.1592516644700462,1.0592836936030214,0.8407163063969787,0.0242071262975991,0.0013885958511331,3.1995222511425734,8.0000000000000000,0.0000000000000000,0.3999402813928217
3.2967337865090851,0.1616647809539214,1.0616967129658950,0.8383032870341053,0.0240588634408396,0.0015728540478704,3.2995073214897364,8.0000000000000000,0.0000000000000000,0.4124384151862170
3.3966901090328023,0.1640622546464377,1.0640939948458719,0.8359060051541284,0.0238926024523529,0.0018344448346308,3.3994923918381224,8.0000000000000000,0.0000000000000000,0.4249365489797653
3.4966468520243801,0.1664421334487393,1.0664737204936734,0.8335262795063267,0.0236920292491578,0.0021755636962854,3.4994774621866398,8.0000000000000000,0.0000000000000000,0.4374346827733300
3.5966041282428600,0.1687995098298377,1.0688309332705634,0.8311690667294366,0.0234575546739133,0.0025149074586168,3.5994625325342655,8.0000000000000000,0.0000000000000000,0.4499328165667832
3.6965619762862940,0.1711325137424780,1.0711636981654939,0.8288363018345063,0.0231891228508188,0.0029361356050351,3.6994476028834464,8.0000000000000000,0.0000000000000000,0.4624309503604308
3.7965205036879341,0.1734362263586210,1.0734671245158385,0.8265328754841617,0.0228704152238739,0.0034284550520028,3.7994326732295849,8.0000000000000000,0.0000000000000000,0.4749290841536981
3.8964798185212262,0.1757055151446325,1.0757363192321776,0.8242636807678226,0.0225035342116884,0.0032924068265956,3.8994177435827906,8.0000000000000000,0.0000000000000000,0.4874272179478488
3.9964400093857932,0.1779358813756648,1.0779662218500623,0.8220337781499379,0.0222120321675352,0.0031828958309397,3.9994028139243429,8.0000000000000000,0.0000000000000000,0.4999253517405429
4.0964006302379747,0.1801468930901569,1.0801762711643372,0.8198237288356630,0.0218670500845519,0.0043216600483314,4.0993878842796478,8.0000000000000000,0.0000000000000000,0.5124234855349560
4.1963623361845803,0.1823082898461066,1.0823375465580596,0.8176624534419407,0.0213478291996159,0.0054439803525420,4.1993729546236365,8.0000000000000000,0.0000000000000000,0.5249216193279546
4.2963251991355724,0.1844154971028589,1.0844442874120830,0.8155557125879170,0.0207784165675491,0.0059251485202639,4.2993580249680718,8.0000000000000000,0.0000000000000000,0.5374197531210090
4.3962893017337707,0.1864630535660746,1.0864918582962826,0.8135081417037178,0.0201629764162992,0.0050912866819055,4.3993430953322674,8.0000000000000000,0.0000000000000000,0.5499178869165334
4.4962546826631993,0.1884472169383019,1.0884753095455881,0.8115246904544119,0.0197603112534601,0.0043176851436298,4.4993281656610593,8.0000000000000000,0.0000000000000000,0.5624160207076324
4.5962204018098047,0.1904142686230620,1.0904405873844789,0.8095594126155211,0.0192995683106358,0.0061572981719630,4.5993132360307323,8.0000000000000000,0.0000000000000000,0.5749141545038415
4.6961875686778960,0.1923063144783627,1.0923326061997318,0.8076673938002683,0.0185290354716749,0.0079543237298187,4.6992983063620137,8.0000000000000000,0.0000000000000000,0.5874122882952517
4.7961562004492544,0.1941193101491347,1.0941449440191719,0.8058550559808280,0.0177089410754134,0.0084191052819886,4.7992833767052385,8.0000000000000000,0.0000000000000000,0.5999104220881548
4.8961263362126966,0.1958473885071217,1.0958731218140982,0.8041268781859019,0.0168454658036519,0.0068848330170500,4.8992684470876329,8.0000000000000000,0.0000000000000000,0.6124085558859541
4.9960979498311788,0.1974877406766251,1.0975125819300966,0.8024874180699034,0.0163321800483562,0.0054521938744135,4.9992535173967703,8.0000000000000000,0.0000000000000000,0.6249066896745963
5.0960698069235431,0.1991131916489861,1.0991354773483104,0.8008645226516897,0.0157551898274537,0.0079958817198196,5.0992385877891024,8.0000000000000000,0.0000000000000000,0.6374048234736378
5.1960432469109943,0.2006381774649856,1.1006605025755662,0.7993394974244339,0.0147332424558140,0.0104648010287424,5.1992236580979414,8.0000000000000000,0.0000000000000000,0.6499029572622427
5.2960182173859689,0.2020592932306200,1.1020807716241239,0.7979192283758763,0.0136625420938428,0.0109102522777684,5.2992087284409246,8.0000000000000000,0.0000000000000000,0.6624010910551156
5.3959946938579479,0.2033701925183200,1.1033918272277956,0.7966081727722044,0.0125515177721889,0.0086736435580530,5.3991937988499341,8.0000000000000000,0.0000000000000000,0.6748992248562418
5.4959725752440338,0.2045691557100320,1.1045898163105581,0.7954101836894417,0.0119280723712401,0.0065864219018036,5.4991788691313781,8.0000000000000000,0.0000000000000000,0.6873973586414223
5.5959506085612087,0.2057553942623328,1.1057727992741115,0.7942272007258884,0.0112344300577338,0.0098366278830439,5.5991639395562824,8.0000000000000000,0.0000000000000000,0.6998954924445353
5.6959300570363647,0.2068156585667302,1.1068331385670862,0.7931668614329139,0.0099610405094603,0.0129746271467895,5.6991490098307569,8.0000000000000000,0.0000000000000000,0.7123936262288446
5.7959107871242894,0.2077472715812826,1.1077637349614640,0.7922362650385362,0.0086398920427162,0.0133989529554167,5.7991340801749001,8.0000000000000000,0.0000000000000000,0.7248917600218625
5.8958926882854445,0.2085433571031076,1.1085600016884325,0.7914399983115675,0.0072816500005342,0.0104597960100314,5.8991191506202272,8.0000000000000000,0.0000000000000000,0.7373898938275284
5.9958755800896117,0.2092033709514838,1.1092190853933424,0.7907809146066578,0.0065482451630030,0.0077203311525382,5.9991042208647585,8.0000000000000000,0.0000000000000000,0.7498880276080948
6.0958585414228157,0.2098528012498435,1.1098646983984022,0.7901353016015980,0.0057378142936069,0.0116771658882914,6.0990892913336507,8.0000000000000000,0.0000000000000000,0.7623861614167063
6.1958423716622821,0.2103507558580419,1.1103627328313692,0.7896372671686309,0.0042131606574010,0.0154821768789256,6.1990743615598918,8.0000000000000000,0.0000000000000000,0.7748842951949865
6.2958268483487583,0.2106953048383327,1.1107061339985254,0.7892938660014746,0.0026418412067504,0.0158862627588514,6.2990594319067608,8.0000000000000000,0.0000000000000000,0.7873824289883451
6.3958117500152154,0.2108790444308961,1.1108900461326927,0.7891099538673075,0.0010363824560944,0.0122478320448416,6.3990445023997546,8.0000000000000000,0.0000000000000000,0.7998805627999693
6.4957968174492127,0.2109025502802542,1.1109128142654892,0.7890871857345108,0.0001926405095956,0.0088543371195756,6.4990295725967888,8.0000000000000000,0.0000000000000000,0.8123786965745986
6.5957818868470257,0.2109175667804357,1.1109236411315200,0.7890763588684799,-0.0007342205837115,0.0135130302575264,6.5990146431222465,8.0000000000000000,0.0000000000000000,0.8248768303902808
6.6957668260315373,0.2107557281574451,1.1107618520996254,0.7892381479003748,-0.0025095620521274,0.0179846421715897,6.6989997132850982,8.0000000000000000,0.0000000000000000,0.8373749641606373
6.7957513183005487,0.2104157300301679,1.1104206280747004,0.7895793719252994,-0.0043306120058488,0.0183742169920633,6.7989847836357189,8.0000000000000000,0.0000000000000000,0.8498730979544649
6.8957350053016278,0.2098897381458535,1.1098947596734841,0.7901052403265161,-0.0061838568130519,0.0140446770365229,6.8989698541902378,8.0000000000000000,0.0000000000000000,0.8623712317737797
6.9957175503646036,0.2091791517213115,1.1091837787306318,0.7908162212693685,-0.0071391280488118,0.0099874759422510,6.9989549243274176,8.0000000000000000,0.0000000000000000,0.8748693655409272
7.0957000499982348,0.2084621378328229,1.1084624625870507,0.7915375374129492,-0.0081810537827840,0.0153358668006117,7.0989399949225085,8.0000000000000000,0.0000000000000000,0.8873674993653136
7.1956808971689199,0.2075432043285665,1.1075435345876592,0.7924564654123407,-0.0102058434903698,0.0204776006555154,7.1989250650067627,8.0000000000000000,0.0000000000000000,0.8998656331258453
7.2956596731542485,0.2064213103569934,1.1064204275088720,0.7935795724911283,-0.0122759624616970,0.0208662130024233,7.2989101353603312,8.0000000000000000,0.0000000000000000,0.9123637669200414
7.3956358593689346,0.2050884414070162,1.1050876095442776,0.7949123904557228,-0.0143784630463395,0.0158646369095597,7.3988952059942585,8.0000000000000000,0.0000000000000000,0.9248619007492823
7.4956090335986136,0.2035461477267420,1.1035454149785993,0.7964545850214011,-0.0154484161365955,0.0111251279873693,7.4988802760565134,8.0000000000000000,0.0000000000000000,0.9373600345070642
7.5955821387389086,0.2019993423329368,1.1019944221588436,0.7980055778411566,-0.0166031564557179,0.0171361136431576,7.5988653467336835,8.0000000000000000,0.0000000000000000,0.9498581683417104
7.6955514843916140,0.2002261668611877,1.1002211183138193,0.7997788816861809,-0.0188751271923560,0.0229545389467759,7.6988504167265761,8.0000000000000000,0.0000000000000000,0.9623563020908220
7.7955165285462211,0.1982251070684157,1.0982188858581945,0.8017811141418058,-0.0211933788304377,0.0233671773326275,7.7988354870777377,8.0000000000000000,0.0000000000000000,0.9748544358847172
7.8954765791131836,0.1959884441011713,1.0959820988051534,0.8040179011948471,-0.0235478649404282,0.0177147866100195,7.8988205578162169,8.0000000000000000,0.0000000000000000,0.9873525697270271
7.9954310916537921,0.1935166756264327,1.0935109507439944,0.8064890492560060,-0.0247358072014390,0.0122485050276877,7.9988056277848045,8.0000000000000000,0.0000000000000000,0.9998507034731006
8.0953855460748780,0.1910425256586055,1.0910332901279880,0.8089667098720124,-0.0259972002146398,0.0188868094302800,8.0987906985537954,8.0000000000000000,0.0000000000000000,1.0123488373192244
8.1953335047265377,0.1883186014704942,1.0883093338307657,0.8116906661692346,-0.0285126051398785,0.0254061096038601,8.1987757684473372,8.0000000000000000,0.0000000000000000,1.0248469710559172
8.2952742469170797,0.1853416330935183,1.0853315884073369,0.8146684115926631,-0.0310776635148386,0.0258843077273022,8.2987608387844318,8.0000000000000000,0.0000000000000000,1.0373451048480540
8.3952069173461901,0.1821050022701749,1.0820948663796850,0.8179051336203151,-0.0336886938113234,0.0196592235868237,8.3987459096609367,8.0000000000000000,-2.2349541968893938,1.0498432387076171
8.4951307505258402,0.1786061802595524,1.0785973900831898,0.8214026099168102,-0.0350089212220566,0.0134385766184782,8.4987309795102721,7.9720183076199653,-7.2203138853590936,1.0623632681645874
8.5950545264060132,0.1751056933261834,1.0750928150742682,0.8249071849257322,-0.0363760078686566,0.0206037998104308,8.5987160503704843,7.8809408515802657,-6.8101130616703065,1.0749773258753443
8.6949684196828283,0.1713336756576674,1.0713192214409093,0.8286807785590909,-0.0391290659687069,0.0278182551936898,8.6987011201910445,7.7940624481840439,-6.8101060238559485,1.0877345888766303
8.7948714062531668,0.1672830526726111,1.0672666920619589,0.8327333079380411,-0.0419388282561659,0.0284349920378913,8.7986861904377580,7.7062047460359526,-6.8085137282756101,1.1006356658701930
8.8947625264277548,0.1629496288821323,1.0629315596049373,0.8370684403950629,-0.0448152153469410,0.0204907736926274,8.8986712615808141,7.6173546673912211,-7.3089795487474136,1.1136855152485878
8.9946405572791459,0.1583243567877151,1.0583069419535678,0.8416930580464326,-0.0460363711601059,0.0121602413372307,8.9986563314097587,7.5208054400913174,-7.3451949036365862,1.1268951879061684
9.0945207955818717,0.1537469809394367,1.0537250916374326,0.8462749083625676,-0.0472469005166321,0.0209607487841010,9.0986414021606752,7.4225127014689853,-6.8821880816799226,1.1402770981089416
9.1943873357112160,0.1488799120569273,1.0488550651283857,0.8511449348716146,-0.0502278950419828,0.0301170576060994,9.1986264720306963,7.3292197873346394,-6.8648723401192893,1.1538328035077356
9.2942385078561021,0.1437071362501952,1.0436796255152798,0.8563203744847202,-0.0532694127333786,0.0312376968818058,9.2986115418574187,7.2349632487318765,-6.8587351135803916,1.1675630717389327
9.3940735956800978,0.1382326693721625,1.0382014629851282,0.8617985370148721,-0.0564745017061521,0.0129239650630908,9.3985966134852550,7.1395483727813991,-7.8404663807687918,1.1814745108556810
9.4938895618982979,0.1324199402268634,1.0323905961031621,0.8676094038968380,-0.0558538199032788,-0.0074097848239529,9.4985816870322068,7.0288897951126232,-7.9491731221290678,1.1955882857632809
9.5937313632841015,0.1270694094781825,1.0270112292846416,0.8729887707153585,-0.0549927659986615,0.0115197924671338,9.5985667533334045,6.9148893374027924,-7.0154650930887295,1.2099294576006980
9.6935571883728766,0.1214285828953626,1.0213440689519684,0.8786559310480313,-0.0581574343763356,0.0319854556248146,9.6985518236148831,6.8126948418190105,-6.9145289711724001,1.2244964883289184
9.7933631296051615,0.1154462308638324,1.0153358528504064,0.8846641471495938,-0.0613889020818219,0.0352091294060816,9.7985368947059790,6.7104479482564452,-6.9097352269548056,1.2392837419493525
9.8931504053786981,0.1091603592355508,1.0090199015326817,0.8909800984673184,-0.0651982086635794,-0.0208349137941402,9.8985219565323899,6.6066913851425459,-4.9323317575634738,1.2542997389023394
9.9929079417760995,0.1024178008840367,1.0022624493348897,0.8977375506651102,-0.0572225401715833,-0.0836262705101828,9.9985070962342597,6.5316193473628594,-4.8907496003941597,1.2695201339344795
10.0927827211906997,0.0977244062645492,0.9975344866611632,0.9024655133388370,-0.0484754519633406,-0.0269332638344055,10.0984920926895736,6.4563184661172297,-7.0983570643816423,1.2849167269719888
10.1926428837887215,0.0927279681605363,0.9925724080127775,0.9074275919872226,-0.0518366933103978,0.0348108098733144,10.1984771739158777,6.3454384025546515,-7.0364443653677693,1.3005372519127467
10.2924839422784746,0.0873632733813736,0.9872122515813551,0.9127877484186451,-0.0554365753458614,0.0376646792590344,10.2984622573554976,6.2335791939010639,-5.5437946975381989,1.3164343730786783
