# x_m,y_m,w_tr_right_m,w_tr_left_m,psi,kappa,s,velocity,acceleration,time
-0.0565572749639343,0.0731895697561722,-0.0051096103205924,-0.0122925440733657,0.1878010566374666,0.0000000000000000,0.0000000000000000,8.0000000000000000,0.0000000000000000,0.0000000000000000
0.0416338071288406,0.0918498542823328,0.0926647907665930,0.0067797987031011,0.1878010566374666,0.0185354212786109,0.0999484608243035,8.0000000000000000,0.0000000000000000,0.0124935576030379
0.1398248892216155,0.1105101388084934,0.1904391918537785,0.0258521414795680,0.1840958829824122,0.0370734512285854,0.1998969216486070,8.0000000000000000,0.0000000000000000,0.0249871152060759
0.2381515528751489,0.1284422875562313,0.2883199835531030,0.0442515252430215,0.1803901878763006,0.0364950971697892,0.2998453820867052,8.0000000000000000,0.0000000000000000,0.0374806727608381
0.3364782356095298,0.1463743338309799,0.3862007902251351,0.0626508142986970,0.1768006254169991,0.0359165727591846,0.3997938429110087,8.0000000000000000,0.0000000000000000,0.0499742303638761
0.4349311011019804,0.1636001270724208,0.4842300281370812,0.0802997916061607,0.1732105755715661,0.0356640264572327,0.4997423030115598,8.0000000000000000,0.0000000000000000,0.0624677878764450
0.5333840020618061,0.1808257218006751,0.5822593077699926,0.0979485580164402,0.1696714963404158,0.0354114783602696,0.5996907638358632,8.0000000000000000,0.0000000000000000,0.0749613454794829
0.6319563268513551,0.1973542243118530,0.6804692757997398,0.1148128023628540,0.1661319300937834,0.0363611636044557,0.6996392236022765,8.0000000000000000,0.0000000000000000,0.0874549029502846
0.7305287021296265,0.2138824321138789,0.7786793202189846,0.1316767150374653,0.1624030117067898,0.0373114360698392,0.7995876844265800,8.0000000000000000,0.0000000000000000,0.0999484605533225
0.8292215509001524,0.2296753453951180,0.8769805570502988,0.1478589176155126,0.1586734889395183,0.0365176676002777,0.8995361436860935,8.0000000000000000,0.0000000000000000,0.1124420179607617
0.9279144675482341,0.2454678443943935,0.9752818452615299,0.1640407361023022,0.1551032424248497,0.0357229395132459,0.9994846045103970,8.0000000000000000,0.0000000000000000,0.1249355755637996
1.0267175683261800,0.2605556454127090,1.0737415410616244,0.1794407069153708,0.1515325833626013,0.0365709884427428,1.0994330635425662,8.0000000000000000,0.0000000000000000,0.1374291329428208
1.1255207466931019,0.2756429501998975,1.1722013484084783,0.1948401271703810,0.1477928144790388,0.0374202057408998,1.1993815243668695,8.0000000000000000,0.0000000000000000,0.1499226905458587
1.2244339319539761,0.2899913344644773,1.2707452077745798,0.2095487280628147,0.1440523995158374,0.0363950380607454,1.2993299828315006,8.0000000000000000,0.0000000000000000,0.1624162478539376
1.3233472101889108,0.3043390942187293,1.3692891381785703,0.2242567450983743,0.1405175584932923,0.0353682509350236,1.3992784436558041,8.0000000000000000,0.0000000000000000,0.1749098054569755
1.4223593611736007,0.3179878409490446,1.4680009472540168,0.2381461950717791,0.1369823951167441,0.0364110011251073,1.4992269020227211,8.0000000000000000,0.0000000000000000,0.1874033627528401
1.5213716096084340,0.3316358987239150,1.5667129217926532,0.2520348382558751,0.1332391115437153,0.0374558325991378,1.5991753628470247,8.0000000000000000,0.0000000000000000,0.1998969203558781
1.6204831664704944,0.3445430086649784,1.6655120837927120,0.2652214393539015,0.1294950896005305,0.0375746263880711,1.6991238205172265,8.0000000000000000,0.0000000000000000,0.2123904775646533
1.7195948353692592,0.3574492826915492,1.7643113441549756,0.2784072484297000,0.1257280595151575,0.0376924893165511,1.7990722813415299,8.0000000000000000,0.0000000000000000,0.2248840351676912
1.8188008209495616,0.3696093208820693,1.8631784641530416,0.2908951963275084,0.1219604771521503,0.0376955220912221,1.8990207385770175,8.0000000000000000,0.0000000000000000,0.2373775923221272
1.9180069261242634,0.3817684128388453,1.9620456701977351,0.3033822593310738,0.1181928408244675,0.0376984372983073,1.9989691994013210,8.0000000000000000,0.0000000000000000,0.2498711499251651
2.0173017231861885,0.3931805686690477,2.0609806948949618,0.3151645570978380,0.1144246757355398,0.0377171313393825,2.0989176562391418,8.0000000000000000,0.0000000000000000,0.2623647070298927
2.1165966451682467,0.4045916724598441,2.1599158151129330,0.3269458622217581,0.1106533025266674,0.0377358653124102,2.1988661170634454,8.0000000000000000,0.0000000000000000,0.2748582646329307
2.2159746954309978,0.4152545552224938,2.2589164984693983,0.3380163633198040,0.1068813925896472,0.0377973857259124,2.2988145734939271,8.0000000000000000,0.0000000000000000,0.2873518216867409
2.3153528745215666,0.4259162784317155,2.3579172834321520,0.3490857628513156,0.1030977216397675,0.0378589679994463,2.3987630343182302,8.0000000000000000,0.0000000000000000,0.2998453792897788
2.4148087678576711,0.4358268353257557,2.4569769966801158,0.3594428025795615,0.0993135016123230,0.0377943231914418,2.4987114903204746,8.0000000000000000,0.0000000000000000,0.3123389362900593
2.5142647925477553,0.4457361225853291,2.5560368095296999,0.3697986382647870,0.0955427529602522,0.0377294774269727,2.5986599511447785,8.0000000000000000,0.0000000000000000,0.3248324938930973
2.6137925970283669,0.4548963583585321,2.6551609381881982,0.3794268161607040,0.0917714954149880,0.0379070249667414,2.6986084067814291,8.0000000000000000,0.0000000000000000,0.3373260508476786
2.7133205329666570,0.4640552223170681,2.7542851846348211,0.3890536614224214,0.0879652555571921,0.0380850277416380,2.7985568676057326,8.0000000000000000,0.0000000000000000,0.3498196084507166
2.8129151845861395,0.4724575465353811,2.8534569667202416,0.3979635655180492,0.0841584158252857,0.0377316141234917,2.8985053227387447,8.0000000000000000,0.0000000000000000,0.3623131653423431
2.9125099677938495,0.4808583785749187,2.9526288425636866,0.4068720555380715,0.0804228222598147,0.0373771101045853,2.9984537835630478,8.0000000000000000,0.0000000000000000,0.3748067229453810
3.0121646143844516,0.4885163848985454,3.0518765024667531,0.4150148206415933,0.0766868467946247,0.0377245274340421,3.0984022385183421,8.0000000000000000,0.0000000000000000,0.3873002798147928
3.1118193874332136,0.4961728220430110,3.1511243224595478,0.4231559681926309,0.0728818055765068,0.0380734734852416,3.1983506993426460,8.0000000000000000,0.0000000000000000,0.3997938374178308
3.2115294252400575,0.5030722337934359,3.2504200149502154,0.4305620003006967,0.0690760768959084,0.0376808929922605,3.2982991536675836,8.0000000000000000,0.0000000000000000,0.4122873942084480
3.3112395876692915,0.5099699384466612,3.3497158153936777,0.4379663747186454,0.0653495113072853,0.0372865806296796,3.3982476144918872,8.0000000000000000,0.0000000000000000,0.4247809518114859
3.4109982777128551,0.5161260134265812,3.4490866577443122,0.4445797951374850,0.0616226044559700,0.0371892405574080,3.4981960686988742,8.0000000000000000,0.0000000000000000,0.4372745085873593
3.5107570839674236,0.5222803123964731,3.5484576798007814,0.4511913214273747,0.0579154968475029,0.0370925655481663,3.5981445295231778,8.0000000000000000,0.0000000000000000,0.4497680661903972
3.6105586738600159,0.5276965925114807,3.6479145793552239,0.4569936988445027,0.0542079150439845,0.0376952847137243,3.6980929834150387,8.0000000000000000,0.0000000000000000,0.4622616229268798
3.7103603722397143,0.5331110012211290,3.7473716966705117,0.4627940244908297,0.0503803257338820,0.0382999054072557,3.7980414442393426,8.0000000000000000,0.0000000000000000,0.4747551805299178
3.8102004991845506,0.5377631310291973,3.8468666019056452,0.4678457098330434,0.0465518821527329,0.0384807069160997,3.8979898972544453,8.0000000000000000,0.0000000000000000,0.4872487371568057
3.9100407291055532,0.5424132181755549,3.9463616084002218,0.4728953890605909,0.0426881511789949,0.0386603968823055,3.9979383580787493,8.0000000000000000,0.0000000000000000,0.4997422947598437
4.0099138233962863,0.5462937059289189,4.0458754895954909,0.4772075644866070,0.0388237881497568,0.0385901119853503,4.0978868105350514,8.0000000000000000,0.0000000000000000,0.5122358513168814
4.1097870103342515,0.5501720241213417,4.1453894240000189,0.4815176608316670,0.0349741069099705,0.0385191413672818,4.1978352713593550,8.0000000000000000,0.0000000000000000,0.5247294089199194
4.2096870210321260,0.5532834452553228,4.2449265740913757,0.4850734257370181,0.0311239307016105,0.0386189926902035,4.2977837234679717,8.0000000000000000,0.0000000000000000,0.5372229654334965
4.3095871110937578,0.5563925973624392,4.3444637928712435,0.4886269587935405,0.0272542894906198,0.0387194063169331,4.3977321842922752,8.0000000000000000,0.0000000000000000,0.5497165230365344
4.4095082093915829,0.5587307785890329,4.4440165087752064,0.4914282374809373,0.0233840409280979,0.0388293563079658,4.4976806358885453,8.0000000000000000,0.0000000000000000,0.5622100794860682
4.5094293728382251,0.5610665689513457,4.5435692727374306,0.4942271833459844,0.0194924210533791,0.0389393429300277,4.5976290967128488,8.0000000000000000,0.0000000000000000,0.5747036370891061
4.6093656425146383,0.5626269772979978,4.6431277846178052,0.4962767304605512,0.0156001865252402,0.0389858428797498,4.6975775477816129,8.0000000000000000,0.0000000000000000,0.5871971934727016
4.7093019611708762,0.5641848715774800,4.7426863151349945,0.4983238477550320,0.0116992714541688,0.0390321417312074,4.7975260086059155,8.0000000000000000,0.0000000000000000,0.5996907510757394
4.8092473628243093,0.5649655544995893,4.8422458079737760,0.4996170280541575,0.0077977819468669,0.0390620866076644,4.8974744592066672,8.0000000000000000,0.0000000000000000,0.6121843074008334
4.9091927952032774,0.5657436083077753,4.9418053040678531,0.5009076579707737,0.0038908809874787,0.0390919806649993,4.9974229200309708,8.0000000000000000,0.0000000000000000,0.6246778650038713
5.0091412453505217,0.5657433217314888,5.0413625837172056,0.5014381331506724,-0.0000165842318420,0.0391945656302229,5.0973713701786263,8.0000000000000000,0.0000000000000000,0.6371714212723283
5.1090897061289411,0.5657402931710597,5.1409198555583338,0.5019659304119179,-0.0039439916088906,0.0392975212694139,5.1973198310029298,8.0000000000000000,0.0000000000000000,0.6496649788753662
5.2090350701715193,0.5649549380759339,5.2404669886874595,0.5017349286095771,-0.0078720373206924,0.0392977786033231,5.2972682805968523,8.0000000000000000,0.0000000000000000,0.6621585350746065
5.3089804228555773,0.5641667134844217,5.3400140846287920,0.5015011436072880,-0.0117994961379944,0.0392974560735004,5.3972167414211558,8.0000000000000000,0.0000000000000000,0.6746520926776445
5.4089165343695544,0.5625963280484517,5.4395488239577441,0.5004984378022562,-0.0157274773611029,0.0394024051586826,5.4971651906084826,8.0000000000000000,0.0000000000000000,0.6871456488260603
5.5088526107501101,0.5610229689644722,5.5390835163088701,0.4994928086856950,-0.0196759151762413,0.0395080507768680,5.5971136514327862,8.0000000000000000,0.0000000000000000,0.6996392064290983
5.6087732046488474,0.5586634576175640,5.6385984883204161,0.4977204029163043,-0.0236250146090393,0.0394707928370059,5.6970621000394184,8.0000000000000000,0.0000000000000000,0.7121327625049273
5.7086937373895754,0.5563008408571721,5.7381133824338111,0.4959449682698514,-0.0275660046771475,0.0394328409765023,5.7970105608637219,8.0000000000000000,0.0000000000000000,0.7246263201079652
5.8085926296753083,0.5531538387838036,5.8376094871335003,0.4933844317603554,-0.0315075176351527,0.0388559490543403,5.8969590090856236,8.0000000000000000,0.0000000000000000,0.7371198761357030
5.9084914334216725,0.5500036274904730,5.9371055149585210,0.4908206830992174,-0.0353331887911670,0.0382764562526497,5.9969074699099263,8.0000000000000000,0.0000000000000000,0.7496134337387408
6.0083633233419738,0.5460923643094486,6.0366234030595134,0.4873984456182475,-0.0391588629434612,0.0388401666096818,6.0968559185018076,8.0000000000000000,0.0000000000000000,0.7621069898127260
6.1082350997814086,0.5421778921893586,6.1361413833333183,0.4839725883600247,-0.0430972180576521,0.0394095425915464,6.1968043793261112,8.0000000000000000,0.0000000000000000,0.7746005474157639
6.2080730827427271,0.5374800965434428,6.2356440543705460,0.4797387590889398,-0.0470367086596883,0.0388457979512492,6.2967528266663040,8.0000000000000000,0.0000000000000000,0.7870941033332880
6.3079109175302541,0.5327788662698015,6.3351466582815776,0.4755013871142527,-0.0508623729632895,0.0382762604106258,6.3967012874906075,8.0000000000000000,0.0000000000000000,0.7995876609363259
6.4077100344847873,0.5273173223003189,6.4346690363482022,0.4703782388884292,-0.0546880147875193,0.0379793712205428,6.4966497352396102,8.0000000000000000,0.0000000000000000,0.8120812169049513
6.5075089768336252,0.5218523495464371,6.5341915035902760,0.4652510960800963,-0.0584543318598341,0.0376836711107594,6.5965981960639137,8.0000000000000000,0.0000000000000000,0.8245747745079892
6.6072641230878766,0.5156392173432800,6.6337550825965028,0.4591978505714035,-0.0622208641478643,0.0385128355779560,6.6965466438556680,8.0000000000000000,0.0000000000000000,0.8370683304819585
6.7070190662014761,0.5094226149312048,6.7333188522925767,0.4531403094946295,-0.0661529286339060,0.0393482068250981,6.7964951046799715,8.0000000000000000,0.0000000000000000,0.8495618880849964
6.8067222657334101,0.5024251956636048,6.8328676136460533,0.4462382058126216,-0.0700864489843347,0.0395086100401104,6.8964435507574926,8.0000000000000000,0.0000000000000000,0.8620554438446866
6.9064252161741235,0.4954240175795855,6.9324163027500596,0.4393320364450880,-0.0740505775769145,0.0396647634266179,6.9963920115817970,8.0000000000000000,0.0000000000000000,0.8745490014477246
7.0060698048330758,0.4876363538887918,7.0319292472918411,0.4315888066677101,-0.0780153124827871,0.0397389019684752,7.0963404570663204,8.0000000000000000,0.0000000000000000,0.8870425571332901
7.1057141057606019,0.4798448127182591,7.1314420156081271,0.4238414500700172,-0.0819942611405224,0.0398131738119896,7.1962889178906249,8.0000000000000000,0.0000000000000000,0.8995361147363281
7.2052935659505062,0.4712644425648010,7.2309129687370159,0.4152540216976630,-0.0859738427360139,0.0399704479876700,7.2962373628194133,8.0000000000000000,0.0000000000000000,0.9120296703524267
7.3048726972597136,0.4626800713676213,7.3303837097738080,0.4066623323714487,-0.0899842300148226,0.0401283865529041,7.3961858236437168,8.0000000000000000,0.0000000000000000,0.9245232279554646
7.4043801331391705,0.4533012813779319,7.4298078521428144,0.3972190513670125,-0.0939953830113525,0.0404259891003845,7.4961342678385865,8.0000000000000000,0.0000000000000000,0.9370167834798233
7.5038871944313321,0.4439183407863402,7.5292317510476412,0.3877713210493513,-0.0980652601183283,0.0407238501876803,7.5960827286628900,8.0000000000000000,0.0000000000000000,0.9495103410828613
7.6033149927560029,0.4337299043885413,7.6286057679852917,0.3774431387391387,-0.1021359545874496,0.0414623284358268,7.6960311719520345,8.0000000000000000,0.0000000000000000,0.9620038964940043
7.7027423669746433,0.4235371580886545,7.7279795180234840,0.3671102454647573,-0.1063534512099851,0.0422038964082046,7.7959796327763380,8.0000000000000000,0.0000000000000000,0.9744974540970422
7.8020806880110580,0.4125104213973352,7.8272826645925662,0.3558978139106147,-0.1105723827433784,0.0427649771821045,7.8959280742268856,8.0000000000000000,0.0000000000000000,0.9869910092783607
7.9014185187908348,0.4014790934121963,7.9265854224745906,0.3446805403118760,-0.1149020376745424,0.0433246665628755,7.9958765350511891,8.0000000000000000,0.0000000000000000,0.9994845668813986
8.0006576312328903,0.3895925796672419,8.0258040826751831,0.3325631079687788,-0.1192328493161297,0.0440420269529733,8.0958249749954714,8.0000000000000000,0.0000000000000000,1.0119781218744339
8.0998961876874436,0.3777012494656357,8.1250222692326730,0.3204406058785275,-0.1237059023660083,0.0447610180824016,8.1957734358197740,8.0000000000000000,0.0000000000000000,1.0244716794774718
8.1990249903646966,0.3649274197411648,8.2241369793126982,0.3074154387175520,-0.1281804380162024,0.0455244396297205,8.2957218737568201,8.0000000000000000,0.0000000000000000,1.0369652342196025
8.2981531581140171,0.3521484847381985,8.3232510907791024,0.2943850496199582,-0.1328060966658378,0.0462878443459372,8.3956703345811245,8.0000000000000000,0.0000000000000000,1.0494587918226406
8.3971595435610311,0.3384581428983658,8.4222352717419646,0.2804530042697647,-0.1374332344524090,0.0470042355673895,8.4956187703816628,8.0000000000000000,0.0000000000000000,1.0619523462977078
8.4961652085101917,0.3247624089230702,8.5212186839999582,0.2665156244712675,-0.1422020974839819,0.0477205418406055,8.5955672312059672,8.0000000000000000,0.0000000000000000,1.0744459039007459
8.5950365158722750,0.3101284084928273,8.6200472972427384,0.2516753672118373,-0.1469724225687363,0.0485431620422354,8.6955156648509213,8.0000000000000000,0.0000000000000000,1.0869394581063652
8.6939070107041143,0.2954887338770844,8.7188749743353231,0.2368296497825692,-0.1519057248239428,0.0493677628714763,8.7954641256752257,8.0000000000000000,0.0000000000000000,1.0994330157094032
8.7926291172545881,0.2798799377751460,8.8175244253187284,0.2210835156976499,-0.1568408849176683,0.0494593954576720,8.8954125565659350,8.0000000000000000,0.0000000000000000,1.1119265695707419
8.8913503000779315,0.2642651088261114,8.9161727668324975,0.2053317764578725,-0.1617925042420352,0.0495443076563622,8.9953610173902394,8.0000000000000000,0.0000000000000000,1.1244201271737799
8.9899129898974550,0.2476794254783217,9.0146596167967132,0.1885891361284729,-0.1667446379903721,0.0503565796259490,9.0953094476759269,8.0000000000000000,0.0000000000000000,1.1369136809594909
9.0884746798678311,0.2310876175198440,9.1131454479955298,0.1718402447243375,-0.1718586279561951,0.0511753637014538,9.1952579085002313,8.0000000000000000,0.0000000000000000,1.1494072385625289
9.1868625764209906,0.2134947223878774,9.2114648552090834,0.1540567122614827,-0.1769744339499717,0.0526497467696158,9.2952063359379835,8.0000000000000000,0.0000000000000000,1.1619007919922479
9.2852493494783435,0.1958953556802814,9.3097831865668752,0.1362664913123121,-0.1823831485032266,0.0541292517438348,9.3951547967622879,8.0000000000000000,0.0000000000000000,1.1743943495952860
9.3834411784617124,0.1772392072556881,9.4078934579894060,0.1174478761479430,-0.1877947026683187,0.0551866003776764,9.4951032192267757,8.0000000000000000,0.0000000000000000,1.1868879024033470
9.4816317129831695,0.1585760416202049,9.5060023478584714,0.0986224322705389,-0.1934147779180280,0.0562390896788490,9.5950516800510766,8.0000000000000000,0.0000000000000000,1.1993814600063846
9.5796076421585017,0.1388174044807686,9.6038749081152659,0.0787309854211444,-0.1990367212133091,0.0574536675926146,9.6950000989449112,8.0000000000000000,0.0000000000000000,1.2118750123681139
9.6775821278272964,0.1190513988376930,9.7017458787409279,0.0588323682832029,-0.2048995867981547,0.0586715776814099,9.7949485597692121,8.0000000000000000,0.0000000000000000,1.2243685699711515
9.7753196377220721,0.0981453076643863,9.7993547822069313,0.0378455337993778,-0.2107649862408947,0.0599429360277236,9.8948969739065955,8.0000000000000000,0.0000000000000000,1.2368621217383244
9.8730555165915472,0.0772313696622191,9.8969618819519862,0.0168512094781240,-0.2168819923861249,0.0612142684078608,9.9948454347308981,8.0000000000000000,0.0000000000000000,1.2493556793413623
9.9705299483148266,0.0551311517332834,9.9942696485446447,-0.0052472925120287,-0.2230015268874725,0.0624718706247206,10.0947938437841831,8.0000000000000000,0.0000000000000000,1.2618492304730229
10.0680025464421039,0.0330226141184684,10.0915753158370034,-0.0273535383838342,-0.2293699237794042,0.0637304390271643,10.1947423046084875,8.0000000000000000,0.0000000000000000,1.2743427880760609
10.1651875880369964,0.0096827115533723,10.1885484159932531,-0.0505822884816590,-0.2357410418108068,0.0645917476405299,10.2946907081052377,8.0000000000000000,0.0000000000000000,1.2868363385131547
