# x_m,y_m,w_tr_right_m,w_tr_left_m,psi,kappa,s,velocity,acceleration,time
0.0368028333039841,-0.4289235571873627,0.5533660085593590,1.3147881606675815,0.1584240359354663,0.0000000000000000,0.0000000000000000,8.0000000000000000,-6.2919265984495940,0.0000000000000000
0.1354944722489215,-0.4131562983829242,0.5525288110514955,1.3032580732931101,0.1584240359354663,0.0013275333194554,0.0999432141160370,7.9210055716138417,-8.3377727182506067,0.0125548871478608
0.2341861111938588,-0.3973890395784858,0.5516916135436321,1.2917279859186386,0.1581586800418813,0.0026561664331900,0.1998864282320740,7.8150957548500699,-5.6331656026760832,0.0252572982524410
0.3328861040984911,-0.3816741598099719,0.5508461101238734,1.2803236688558490,0.1578931043143770,0.0478206403656687,0.2998296423364508,7.7427209884928860,-2.9791097737054435,0.0381052724577088
0.4315861039239552,-0.3659593234348325,0.5500005998230880,1.2689194559873838,0.1485999830439748,0.0930159292698955,0.3997728564524879,7.7041706038788504,-1.9174958506896818,0.0510455088176756
0.5305611010840008,-0.3520815161311135,0.5500000000000000,1.2626334428073629,0.1393004835837688,0.1116228017324530,0.4997160583142963,7.6792553899399447,-0.8404053353771770,0.0640391296017541
0.6295362934715347,-0.3382050129802954,0.5500000000000002,1.2563510631653596,0.1262881012642691,0.1302586188863225,0.5996592724303333,7.6683099652508808,-0.7385074589023908,0.0770631124684867
0.7288388649310092,-0.3269074200612154,0.5500000000000002,1.2562540224832179,0.1132635598576950,0.0656018536126225,0.6996024378006042,7.6586787487778496,-4.6015789054708129,0.0901045738063933
0.8281419084053951,-0.3156135454130607,0.5500000000000000,1.2561658998183589,0.1131751842580513,0.0007911193550868,0.7995456519166411,7.5983923961150381,-5.2043269113951034,0.1032058057750850
0.9274465236093729,-0.3043334990184082,0.5500000000000000,1.2561076320193509,0.1131054258355029,0.0581295718281150,0.8994888660308349,7.5296276592994413,-1.9863412949724437,0.1164187991143453
1.0267511418030490,-0.2930534789274598,0.5500000000000000,1.2560494210094055,0.1015558717707767,0.1156991327900882,0.9994320801468718,7.5032159785644765,-1.9103976989252298,0.1297154469773357
1.1262897374901097,-0.2840700922842425,0.5500000000000000,1.2570976249443957,0.0899787468304483,0.0591202760656918,1.0993752303220272,7.4777261044216754,-5.1561634388636799,0.1430581526124720
1.2258288943131208,-0.2750922135365639,0.5500000000000000,1.2581484823363163,0.0897385347321140,0.0022679065631185,1.1993184444380642,7.4084911149014747,-4.1986557102715567,0.1564857699370808
1.3253718580089828,-0.2661566429653953,0.5500054445834461,1.2593615735755475,0.0895254230880398,0.0795860116666344,1.2992616585288070,7.3516315404462507,0.0000000000000000,0.1700280983342681
1.4249148323714236,-0.2572211909386363,0.5500109044222160,1.2605751193821282,0.0738303711248474,0.1572720186063276,1.3992048726448443,7.3516315404462507,0.0000000000000000,0.1836227968125831
1.5246890537516504,-0.2514141840199974,0.5502823224868352,1.2677425665299311,0.0580889042124038,0.0784025552243323,1.4991479393447591,7.3516315404462507,4.2626173726747201,0.1972174752387340
1.6244639675693946,-0.2456165448016820,0.5505545369269292,1.2749278418197001,0.0581587759545883,-0.0009367453612568,1.5990911534607961,7.4093539305413163,8.4485740607406346,0.2107590120571902
1.7242375236383765,-0.2397955865641465,0.5539946561063529,1.2848841619765121,0.0582761468968171,0.0023908053873357,1.6990343675648731,7.5224517918349969,8.3647108238249697,0.2241456333355939
1.8240110737583917,-0.2339745261544923,0.5574486554381106,1.2948526234469191,0.0576808864051443,0.0059747904945994,1.7989775816809102,7.6327762400223751,8.1519130486791198,0.2373349055663977
1.9237914887180980,-0.2282723545477251,0.5603855486219905,1.3036615464832932,0.0570818673677267,0.0030701092962213,1.8989207954103287,7.7387809057050871,8.3161350535752003,0.2503385606654775
2.0235719410861965,-0.2225708307986205,0.5633196239527830,1.3124641508770254,0.0570672132248276,0.0001315441803834,1.9988640095263654,7.8454453308311525,8.4919033225168832,0.2631647623131058
2.1233525235098356,-0.2168715835651794,0.5604745572588024,1.3041940371480294,0.0570555734713551,0.0029925497056007,2.0988072236423250,7.9528880705746765,3.7599918300253776,0.2758171366587525
2.2231331085563846,-0.2111723826586770,0.5576123022717403,1.2958732767187515,0.0564690431529378,0.0058674743941522,2.1987504377351499,8.0000000000000000,0.0000000000000000,0.2883469323484962
2.3229203078885678,-0.2055901879932198,0.5549653514969761,1.2885760058447528,0.0558827449721011,0.0048642441603966,2.2986936518511865,8.0000000000000000,0.0000000000000000,0.3008398341130007
2.4227075072207516,-0.2000079933277626,0.5523184007222119,1.2812787349707544,0.0554967467616674,0.0038727412998602,2.3986368659672235,8.0000000000000000,0.0000000000000000,0.3133327358775054
2.5224989860885971,-0.1945028356878589,0.5511627795752035,1.2792678411616971,0.0551086365468363,0.0094004018022735,2.4985800799203073,8.0000000000000000,0.0000000000000000,0.3258256376216409
2.6222904883720859,-0.1889980995589874,0.5500153182953029,1.2772858719669760,0.0536177340229964,0.0149754463828901,2.5985232940363443,8.0000000000000000,0.0000000000000000,0.3383185393861455
2.7220979349847081,-0.1837905248970798,0.5500235417498354,1.2802951412380226,0.0521152481192131,0.0101759184015144,2.6984665040768006,8.0000000000000000,0.0000000000000000,0.3508114406412025
2.8219055282687715,-0.1785856838152593,0.5500423963161645,1.2833503247731872,0.0515837060812094,0.0052743659455773,2.7984097181928376,8.0000000000000000,0.0000000000000000,0.3633043424057071
2.9217184581367248,-0.1734842156012882,0.5500238539441917,1.2854562698349705,0.0510609739518300,0.0304874262514355,2.8983529318031831,8.0000000000000000,0.0000000000000000,0.3757972441070003
3.0215314383504857,-0.1683837226161606,0.5500049587661719,1.2875532596964403,0.0454896833572385,0.0558684609191879,2.9982961459192197,8.0000000000000000,0.0000000000000000,0.3882901458715049
3.1213949819384741,-0.1643947232315101,0.5500173863260006,1.2838259117818589,0.0398936286908453,0.0329989979957587,3.0982393270475028,8.0000000000000000,0.0000000000000000,0.4007830435125403
3.2212587948412934,-0.1604116439761292,0.5500299807195899,1.2800675417970391,0.0388936326011917,0.0098772491434605,3.1981825411635394,8.0000000000000000,0.0000000000000000,0.4132759452770449
3.3211301488580975,-0.1566223775227528,0.5500151092544454,1.2781349758924587,0.0379193006464322,0.0567827759530149,3.2981257545069402,8.0000000000000000,0.0000000000000000,0.4257688469449700
3.4210015338328494,-0.1528339067139841,0.5500001250358494,1.2762099053192284,0.0275435263747139,0.1042335514045671,3.3980689686229772,8.0000000000000000,0.0000000000000000,0.4382617487094746
3.5209298323849270,-0.1511177975905660,0.5500622808962715,1.2844823563810464,0.0170844472134082,0.0911936373007163,3.4980120018070697,8.0000000000000000,0.0000000000000000,0.4507546278574862
3.6208586098487725,-0.1494191268086728,0.5501250858687925,1.2928406167232793,0.0093151724370246,0.0777997262976809,3.5979552159231067,8.0000000000000000,0.0000000000000000,0.4632475296219908
3.7208015374237071,-0.1492559043388641,0.5504713185401460,1.3080857851768526,0.0015333497297039,0.0371366215194051,3.6978982767818942,8.0000000000000000,0.0000000000000000,0.4757404122293392
3.8207446488456500,-0.1491126313645985,0.5508212336797208,1.3234204326064301,0.0018920714963608,-0.0041246194727681,3.7978414908979312,8.0000000000000000,0.0000000000000000,0.4882333139938438
3.9206875861924835,-0.1488777051921590,0.5509344196015885,1.3355614553567112,0.0023578051812077,0.0004717686215580,3.8977847043534708,8.0000000000000000,0.0000000000000000,0.5007262156757863
4.0206305208034552,-0.1486413385467018,0.5510438849544261,1.3476522853120747,0.0017977713519572,0.0056491903326166,3.9977279184695078,8.0000000000000000,0.0000000000000000,0.5132191174402910
4.1205736590341981,-0.1485183553496115,0.5511018568183388,1.3480192128603701,0.0012286087044491,0.0092377619762343,4.0976711323675818,8.0000000000000000,0.0000000000000000,0.5257120191775503
4.2205167979549980,-0.1483957564031264,0.5511596541734975,1.3483464087136126,-0.0000487318923168,0.0127717843560831,4.1976143464836184,8.0000000000000000,0.0000000000000000,0.5382049209420549
4.3204599244145454,-0.1485280961855793,0.5510503774566625,1.3486312795811963,-0.0013242976521584,0.0063768104746725,4.2975575605620495,8.0000000000000000,-0.2301148687547896,0.5506978227018587
4.4204030508726513,-0.1486604654533097,0.5509410814166535,1.3489161455536274,-0.0013233697613722,-0.0000100896360954,4.3975007746780861,7.9971246808338252,-8.4183543071683875,0.5631929699373845
4.5203461776152238,-0.1487926197631998,0.5507662909655646,1.3491624724437576,-0.0013222808708371,-0.0013111290122116,4.4974439887941209,7.8912159004015070,-8.3406385361149038,0.5757736687970340
4.6202893043613633,-0.1489247713766810,0.5505906789593988,1.3494083159036503,-0.0010612928661697,-0.0026295488754875,4.5973872029101575,7.7848640283945088,-8.3405933137268118,0.5885247155600001
4.7202324862797846,-0.1490047577562772,0.5505012180399464,1.3494119510260143,-0.0007966697387547,-0.0012448722570676,4.6973304168358645,7.6770395685412840,-8.4266153085580964,0.6014523881844127
4.8201756689695534,-0.1490840148282437,0.5504129615748818,1.3494121999009610,-0.0008124597973362,0.0001773303716105,4.7972736309519011,7.5665428367805569,-8.4770799346249763,0.6145652131698498
4.9201188485016454,-0.1491671574253511,0.5503311872056095,1.3479887351487561,-0.0008321156733528,-0.0004125421540706,4.8972168450670948,7.4537317681064623,-8.4445159755322514,0.6278729877271373
5.0200620279984527,-0.1492503434388707,0.5502494852665321,1.3465493619838016,-0.0007299982196642,-0.0010299581612506,4.9971600591831313,7.3396303131957312,-8.3772032145927788,0.6413848876680383
5.1200052223985004,-0.1493130741483505,0.5501752664047067,1.3418677136972432,-0.0006262410153020,-0.0023526233630535,5.0971032732700703,7.2246580476677229,-8.3135911751561338,0.6551093088839078
5.2199484170057167,-0.1493755205104315,0.5501011515644861,1.3371409948267767,-0.0002597407387166,-0.0036887869029034,5.1970464873861077,7.1087206908097285,-8.3134923979564039,0.6690548294676545
5.3198916301469126,-0.1493649927927261,0.5500614081399056,1.3307161533438916,0.0001110974216780,-0.0010751125607519,5.2969897010817828,6.9908622905456870,-8.4244986790240617,0.6832315911247666
5.4198348435805492,-0.1493533136437192,0.5500222070493147,1.3242645178057042,-0.0000448403294524,0.0016000038313022,5.3969329151978194,6.8693677012355181,-8.4244875848293024,0.6976531720329191
5.5197780554943288,-0.1493739557658977,0.5500351689756341,1.3126405243791928,-0.0002087216292057,0.0008971342588329,5.4968761292432955,6.7456854272156539,-8.4591703699189207,0.7123344535677852
5.6197212673875878,-0.1493950342643582,0.5500488351658188,1.3009466978606676,-0.0002241652920318,0.0001441954768046,5.5968193433593321,6.6191690212518344,-6.9845566945091369,0.7272905781558083
5.7196644786863597,-0.1494187633650763,0.5500246820682301,1.2867942899112974,-0.0002375443480314,0.0357270265731093,5.6967625574750551,6.5128550146195101,-5.5422477390743392,0.7425118744072802
5.8196076899798186,-0.1494425161551863,0.5500001909659752,1.2726199087296310,-0.0073655130250718,0.0715998765617216,5.7967057715910917,6.4272436033274518,-5.3420263153189458,0.7579589304254504
5.9195403275581482,-0.1508909781563696,0.5500000000000000,1.2637166721497435,-0.0145493822216458,0.0784752288631154,5.8966489059002107,6.3436316593481452,-5.1396635623298774,0.7736106586356875
6.0194728820414776,-0.1523506364315411,0.5500000000000000,1.2548548595872866,-0.0230516399643483,0.0856915785576820,5.9965921200162473,6.2621333136316615,-5.1263932302059008,0.7894674058192598
6.1193662187102396,-0.1554981087264433,0.5500000000000000,1.2551839464316155,-0.0316779397432434,0.0680513869985677,6.0965350301833316,6.1797751028269809,-5.8905418545468473,0.8055329332000715
6.2192587194236255,-0.1586815579674605,0.5500000000000000,1.2557089437784292,-0.0366541679635828,0.0494453743485894,6.1964782442993682,6.0837637158146869,-3.3776423093451942,0.8218321785637529
6.3191159816018505,-0.1628230508016816,0.5500000000000006,1.2563734046286106,-0.0415613937515840,0.1409679528130817,6.2964213519788208,6.0280209697555129,0.0000000000000000,0.8383356271097832
6.4189724280731406,-0.1669867205736868,0.5500000000000012,1.2570410938010306,-0.0648317335424298,0.2339211104092252,6.3963645660948574,6.0280209697555129,0.0000000000000000,0.8549153992468549
6.5185274777340014,-0.1757693873495178,0.5500000000000016,1.2574682148386191,-0.0883186945228325,0.1617604893826577,6.4963062648430361,6.0280209697555129,2.6221031426055967,0.8714949199966363
6.6180782665455258,-0.1846173529262662,0.5500000000000020,1.2578919349623880,-0.0971652148675552,0.0872954271807495,6.5962494789590735,6.0713391968694790,5.2821893225477945,0.8880153330994255
6.7174637156144330,-0.1951601312726136,0.5500000000000010,1.2583117335379121,-0.1057678532661166,0.0602199186318201,6.6961925510645903,6.1576778171743038,6.2166415800877042,0.9043605670607067
6.8168475461428164,-0.2057195004464654,0.5500000000000000,1.2587314937246943,-0.1092023507594340,0.0341471740888135,6.7961357651806278,6.2577646473132269,7.1628096938868815,0.9204603902288152
6.9161583473506463,-0.2169447159014519,0.5500000000000000,1.2605286936249973,-0.1125934090151133,0.0451706198582661,6.8960789525350039,6.3711354124365460,6.6664628168484574,0.9362880849419772
7.0154682778907658,-0.2281778696865975,0.5500000000000000,1.2623423155907678,-0.1182313434150908,0.0567703709060667,6.9960221666510414,6.4748669395598215,6.1199645401586853,0.9518482898022084
7.1146460967869203,-0.2405221519315965,0.5500000000000000,1.2661755975795825,-0.1239410285895173,0.0320327912318449,7.0959652557825201,6.5686526935165253,7.1178748075627150,0.9671728481948738
7.2138212796225938,-0.2528886048326873,0.5500000000000000,1.2700491784081900,-0.1246342596371237,0.0064274904997970,7.1959084698985576,6.6760740544071773,8.2135269748007467,0.9822646226071629
7.3129820111718731,-0.2653703969341541,0.5500000000000000,1.2743478427582571,-0.1252257967005446,0.0222019931215413,7.2958516828519766,6.7979215449290828,7.4740073256423791,0.9970996004304216
7.4121424941745992,-0.2778541727455885,0.5500000000000000,1.2786538180868618,-0.1290721367160093,0.0387745143045572,7.3957948969680141,6.9069305744240710,6.6502350422405243,1.0116846850771801
7.5112042237992007,-0.2910983932456039,0.5500000000000000,1.2838430264834173,-0.1329762938548702,0.0298394852350132,7.4957380590796401,7.0024981969100244,7.0368214085191507,1.0260552482044882
7.6102642076938221,-0.3043560566385828,0.5500000000000000,1.2890478483858232,-0.1350366432881349,0.0205012506354343,7.5956812731956775,7.1022212085504659,7.4658852210637754,1.0402268472619423
7.7092705547292288,-0.3180083717883996,0.5500000000000000,1.2945192882234229,-0.1370742152509226,0.0209276741365275,7.6956244693735334,7.2065161456673570,7.4131447882367514,1.0541963812192336
7.8082756893585046,-0.3316696076359755,0.5500000000000000,1.2999967546857008,-0.1392198009470857,0.0214639238829539,7.7955676834895709,7.3086019177030135,7.3534902968578999,1.0679672942327831
7.9072225399665905,-0.3457466489394916,0.5501267761497182,1.3030043151308019,-0.1413645619332715,0.0285623473855890,7.8955108790414430,7.4084765389995999,6.9323405791088595,1.0815492284252120
8.0061681637640678,-0.3598324424624856,0.5502562207894022,1.3059598869373634,-0.1449290260176788,0.0357523851440328,7.9954540931574813,7.5014135618931084,6.4881701910708358,1.0949555263173816
8.1050121220969800,-0.3746145015506767,0.5506100695918729,1.3053874242841335,-0.1485109769483051,0.0141562004530017,8.0953972638586613,7.5873646299912894,7.6850544079865495,1.1082028773527273
8.2038542985306151,-0.3894087641448722,0.5509678515452632,1.3047531254697222,-0.1477586577489771,-0.0078989143738405,8.1953404779746979,7.6879282062740693,8.0331406682810833,1.1212884810380144
8.3027204275477473,-0.4040420881998880,0.5511030435681475,1.3037493713449495,-0.1469320911833345,-0.0008684856181446,8.2952836900490112,7.7916593783153827,8.4472742764507114,1.1342013847608257
8.4015869257952946,-0.4186729313783070,0.5512348043547844,1.3027399220458715,-0.1475850592625685,0.0066695910842163,8.3952269041650478,7.8992690390381339,8.0122932524463586,1.1469403650757830
8.5004338604124836,-0.4334353557854722,0.5509091281391038,1.3010715845259673,-0.1482652519099055,-0.0050953604568514,8.4951701163287172,8.0000000000000000,-1.7468977684949714,1.1595124162711272
8.5992803635989219,-0.4482006819131762,0.5505733642053064,1.2993887167459217,-0.1465665658702415,-0.0172617206068780,8.5951133304447538,7.9781463288516434,-6.2634927836510075,1.1720224048591741
8.6981768700601023,-0.4626272003201595,0.5502886646649634,1.2974131224732941,-0.1448148684592825,0.0358421328018073,8.6950565314319803,7.8992931207958090,-2.9227820907764048,1.1846117397206521
8.7970744952952415,-0.4770461382385354,0.5500051076400624,1.2954309787340919,-0.1537309213056499,0.0902249185041615,8.7949997455480169,7.8622266143647899,-1.4726007037255560,1.1972936658033362
8.8956977592833120,-0.4932337596082352,0.5500000000000000,1.2962577487059621,-0.1628495786322657,0.1142290333688379,8.8949426656838089,7.8434848955408407,0.0000000000000000,1.2100206180426867
8.9943159906206613,-0.5094538242115907,0.5500000000000000,1.2971360430157681,-0.1765637212050701,0.1381658765497880,8.9948858797998454,7.8434848955408407,0.0000000000000000,1.2227628130551176
9.0924575630744400,-0.5283399723032759,0.5500000000000000,1.3021175446727185,-0.1904669300271413,0.0801408277019018,9.0948281372960693,7.8434848955408407,3.5697158192985285,1.2355048861039282
9.1905867099660945,-0.5472956199619485,0.5500000000000000,1.3072060088967206,-0.1925827083456615,0.0196459373453539,9.1947713514121041,7.8888397785416089,-5.3426262128732525,1.2482103465093672
9.2886484079372753,-0.5665970711508531,0.5500000000000000,1.3113226366845667,-0.1943938859361547,0.0510158756717612,9.2947145484141451,7.8208615103003520,-3.3815207108994567,1.2609341017437239
9.3867082470985874,-0.5859080522626846,0.5500000000000000,1.3154124818472375,-0.2027800886437359,0.0846170131442242,9.3946577625301817,7.7775288277449048,-3.3504170366327797,1.2737486565727911
9.4844321424660052,-0.6068513819189175,0.5500000000000000,1.3167661279807141,-0.2113076516795045,0.0553428586928775,9.4946006601411259,7.7343554283929006,-5.1685507109565698,1.2866346343122650
9.5821483855968879,-0.6278318937389356,0.5500000000000000,1.3180574480865779,-0.2138423574797108,0.0246463483938653,9.5945438742571607,7.6672766189802548,-7.0496099957378515,1.2996128971104703
9.6797651429767129,-0.6492704180918585,0.5500000000000000,1.3179702608714128,-0.2162341216863821,0.0199645635384700,9.6944870663603879,7.5748273709601843,-7.3534486589936305,1.3127269910924020
9.7773799076507792,-0.6707181164642011,0.5500000000000000,1.3178554620691749,-0.2178330023371517,0.0159162080659026,9.7944302804764263,7.4771756106308871,-7.6094925303440446,1.3260067139622780
9.8749276229708443,-0.6924686885002529,0.5500000000000000,1.3168653523685430,-0.2194155555164012,0.0125496299205907,9.8943734850881455,7.3747624351100516,-7.8169732829860576,1.3394653217620027
9.9724740145680499,-0.7142252400240710,0.5500000000000000,1.3158579618296085,-0.2203415029183373,0.0092437648702932,9.9943166992041821,7.2680543548592640,-6.5306299053658901,1.3531161398456517
10.0699812875232944,-0.7361564238184909,0.5500000000000000,1.3138702697699507,-0.2212632586159911,0.0382259226152741,10.0942599085872775,7.1776897314607950,-5.0598378171845306,1.3669531853845853
10.1674874049361907,-0.7580927661504927,0.5500000000000000,1.3118536201629947,-0.2279823458748591,0.0681114533709867,10.1942031227033159,7.1068865878390897,-3.0707900320564598,1.3809463500234280
